 #  Scattering amplitudes (in cm)      MU=(1-cos(TH))/2
 #  Z =  47,   projectile: electron
 #  Kinetic energy = 5.05000E+06 eV
 #
 # TH (deg)      MU          Re(F)        Im(F)        Re(G)        Im(G)        ERRF         ERRG 
 #-----------------------------------------------------------------------------------------------------------------
  0.000E+00  0.00000E+00  9.23187E-07  9.67821E-08  0.00000E+00  0.00000E+00  3.54340E-09  0.00000E+00
  1.000E-04  7.61557E-13  9.23184E-07  9.67820E-08  7.31603E-13  7.67013E-14  3.54238E-09  1.13196E-07
  1.250E-04  1.18994E-12  9.23182E-07  9.67820E-08  9.14502E-13  9.58766E-14  3.54181E-09  1.13187E-07
  1.500E-04  1.71346E-12  9.23180E-07  9.67820E-08  1.09740E-12  1.15052E-13  3.54112E-09  1.13176E-07
  1.750E-04  2.33225E-12  9.23178E-07  9.67820E-08  1.28030E-12  1.34227E-13  3.54029E-09  1.13163E-07
  2.000E-04  3.04617E-12  9.23175E-07  9.67819E-08  1.46319E-12  1.53402E-13  3.53934E-09  1.13148E-07
  2.250E-04  3.85530E-12  9.23171E-07  9.67819E-08  1.64608E-12  1.72578E-13  3.53827E-09  1.13131E-07
  2.500E-04  4.75964E-12  9.23168E-07  9.67819E-08  1.82898E-12  1.91753E-13  3.53707E-09  1.13112E-07
  2.750E-04  5.75917E-12  9.23164E-07  9.67819E-08  2.01186E-12  2.10928E-13  3.53574E-09  1.13091E-07
  3.000E-04  6.85391E-12  9.23159E-07  9.67818E-08  2.19475E-12  2.30103E-13  3.53428E-09  1.13068E-07
  3.250E-04  8.04379E-12  9.23155E-07  9.67818E-08  2.37763E-12  2.49279E-13  3.53270E-09  1.13043E-07
  3.500E-04  9.32893E-12  9.23150E-07  9.67817E-08  2.56051E-12  2.68454E-13  3.53099E-09  1.13016E-07
  3.750E-04  1.07092E-11  9.23144E-07  9.67817E-08  2.74339E-12  2.87629E-13  3.52916E-09  1.12987E-07
  4.000E-04  1.21847E-11  9.23138E-07  9.67816E-08  2.92627E-12  3.06804E-13  3.52720E-09  1.12956E-07
  4.250E-04  1.37554E-11  9.23132E-07  9.67816E-08  3.10914E-12  3.25979E-13  3.52512E-09  1.12923E-07
  4.500E-04  1.54213E-11  9.23125E-07  9.67815E-08  3.29200E-12  3.45154E-13  3.52291E-09  1.12888E-07
  4.750E-04  1.71823E-11  9.23118E-07  9.67814E-08  3.47487E-12  3.64329E-13  3.52057E-09  1.12852E-07
  5.000E-04  1.90386E-11  9.23111E-07  9.67814E-08  3.65772E-12  3.83504E-13  3.51811E-09  1.12813E-07
  5.250E-04  2.09900E-11  9.23103E-07  9.67813E-08  3.84058E-12  4.02679E-13  3.51552E-09  1.12772E-07
  5.500E-04  2.30367E-11  9.23095E-07  9.67812E-08  4.02343E-12  4.21854E-13  3.51281E-09  1.12729E-07
  5.750E-04  2.51785E-11  9.23086E-07  9.67812E-08  4.20627E-12  4.41029E-13  3.50997E-09  1.12684E-07
  6.000E-04  2.74156E-11  9.23077E-07  9.67811E-08  4.38911E-12  4.60203E-13  3.50701E-09  1.12637E-07
  6.250E-04  2.97478E-11  9.23068E-07  9.67810E-08  4.57194E-12  4.79378E-13  3.50392E-09  1.12588E-07
  6.500E-04  3.21752E-11  9.23058E-07  9.67809E-08  4.75477E-12  4.98553E-13  3.50071E-09  1.12537E-07
  6.750E-04  3.46979E-11  9.23048E-07  9.67808E-08  4.93759E-12  5.17727E-13  3.49738E-09  1.12485E-07
  7.000E-04  3.73157E-11  9.23037E-07  9.67807E-08  5.12041E-12  5.36902E-13  3.49392E-09  1.12430E-07
  7.250E-04  4.00286E-11  9.23026E-07  9.67806E-08  5.30322E-12  5.56076E-13  3.49033E-09  1.12373E-07
  7.500E-04  4.28368E-11  9.23015E-07  9.67805E-08  5.48602E-12  5.75251E-13  3.48662E-09  1.12314E-07
  7.750E-04  4.57402E-11  9.23003E-07  9.67804E-08  5.66881E-12  5.94425E-13  3.48279E-09  1.12254E-07
  8.000E-04  4.87388E-11  9.22991E-07  9.67803E-08  5.85160E-12  6.13600E-13  3.47884E-09  1.12191E-07
  8.250E-04  5.18325E-11  9.22979E-07  9.67802E-08  6.03438E-12  6.32774E-13  3.47476E-09  1.12126E-07
  8.500E-04  5.50215E-11  9.22966E-07  9.67801E-08  6.21716E-12  6.51948E-13  3.47056E-09  1.12060E-07
  8.750E-04  5.83057E-11  9.22953E-07  9.67800E-08  6.39992E-12  6.71122E-13  3.46623E-09  1.11991E-07
  9.000E-04  6.16850E-11  9.22940E-07  9.67799E-08  6.58268E-12  6.90296E-13  3.46179E-09  1.11921E-07
  9.250E-04  6.51595E-11  9.22926E-07  9.67797E-08  6.76543E-12  7.09470E-13  3.45722E-09  1.11848E-07
  9.500E-04  6.87293E-11  9.22911E-07  9.67796E-08  6.94817E-12  7.28644E-13  3.45252E-09  1.11774E-07
  9.750E-04  7.23943E-11  9.22897E-07  9.67795E-08  7.13091E-12  7.47818E-13  3.44771E-09  1.11698E-07
  1.000E-03  7.61544E-11  9.22882E-07  9.67793E-08  7.31363E-12  7.66992E-13  3.44278E-09  1.11619E-07
  1.250E-03  1.18991E-10  9.22710E-07  9.67778E-08  9.14034E-12  9.58724E-13  3.38679E-09  1.10730E-07
  1.500E-03  1.71347E-10  9.22500E-07  9.67759E-08  1.09659E-11  1.15045E-12  3.31897E-09  1.09649E-07
  1.750E-03  2.33223E-10  9.22253E-07  9.67737E-08  1.27901E-11  1.34216E-12  3.23966E-09  1.08380E-07
  2.000E-03  3.04617E-10  9.21967E-07  9.67712E-08  1.46128E-11  1.53385E-12  3.14928E-09  1.06928E-07
  2.250E-03  3.85531E-10  9.21644E-07  9.67683E-08  1.64336E-11  1.72553E-12  3.04829E-09  1.05298E-07
  2.500E-03  4.75965E-10  9.21283E-07  9.67651E-08  1.82524E-11  1.91720E-12  2.93722E-09  1.03494E-07
  2.750E-03  5.75917E-10  9.20885E-07  9.67615E-08  2.00690E-11  2.10884E-12  2.81666E-09  1.01524E-07
  3.000E-03  6.85389E-10  9.20449E-07  9.67576E-08  2.18831E-11  2.30046E-12  2.68722E-09  9.93944E-08
  3.250E-03  8.04380E-10  9.19977E-07  9.67534E-08  2.36945E-11  2.49205E-12  2.54958E-09  9.71116E-08
  3.500E-03  9.32891E-10  9.19467E-07  9.67488E-08  2.55030E-11  2.68362E-12  2.40445E-09  9.46837E-08
  3.750E-03  1.07092E-09  9.18920E-07  9.67439E-08  2.73084E-11  2.87517E-12  2.25258E-09  9.21189E-08
  4.000E-03  1.21847E-09  9.18337E-07  9.67387E-08  2.91105E-11  3.06668E-12  2.09474E-09  8.94258E-08
  4.250E-03  1.37554E-09  9.17717E-07  9.67331E-08  3.09090E-11  3.25816E-12  1.93175E-09  8.66133E-08
  4.500E-03  1.54213E-09  9.17061E-07  9.67271E-08  3.27038E-11  3.44960E-12  1.76445E-09  8.36908E-08
  4.750E-03  1.71823E-09  9.16369E-07  9.67209E-08  3.44946E-11  3.64101E-12  1.59368E-09  8.06680E-08
  5.000E-03  1.90386E-09  9.15641E-07  9.67143E-08  3.62813E-11  3.83238E-12  1.42031E-09  7.75547E-08
  5.250E-03  2.09900E-09  9.14878E-07  9.67073E-08  3.80636E-11  4.02371E-12  1.24522E-09  7.43612E-08
  5.500E-03  2.30367E-09  9.14080E-07  9.67001E-08  3.98414E-11  4.21500E-12  1.06930E-09  7.10979E-08
  5.750E-03  2.51785E-09  9.13247E-07  9.66924E-08  4.16144E-11  4.40624E-12  8.93415E-10  6.77751E-08
  6.000E-03  2.74156E-09  9.12379E-07  9.66845E-08  4.33824E-11  4.59744E-12  7.18449E-10  6.44037E-08
  6.250E-03  2.97478E-09  9.11477E-07  9.66762E-08  4.51454E-11  4.78859E-12  5.45267E-10  6.09941E-08
  6.500E-03  3.21752E-09  9.10541E-07  9.66676E-08  4.69030E-11  4.97969E-12  3.74720E-10  5.75573E-08
  6.750E-03  3.46978E-09  9.09571E-07  9.66586E-08  4.86550E-11  5.17074E-12  2.07638E-10  5.41038E-08
  7.000E-03  3.73156E-09  9.08567E-07  9.66494E-08  5.04014E-11  5.36173E-12  4.48257E-11  5.06444E-08
  7.250E-03  4.00286E-09  9.07531E-07  9.66397E-08  5.21420E-11  5.55267E-12  1.12935E-10  4.71895E-08
  7.500E-03  4.28368E-09  9.06462E-07  9.66298E-08  5.38764E-11  5.74355E-12  2.64904E-10  4.37495E-08
  7.750E-03  4.57402E-09  9.05361E-07  9.66195E-08  5.56047E-11  5.93437E-12  4.10372E-10  4.03347E-08
  8.000E-03  4.87388E-09  9.04228E-07  9.66089E-08  5.73265E-11  6.12513E-12  5.48672E-10  3.69550E-08
  8.250E-03  5.18326E-09  9.03063E-07  9.65979E-08  5.90418E-11  6.31582E-12  6.79186E-10  3.36202E-08
  8.500E-03  5.50215E-09  9.01867E-07  9.65866E-08  6.07504E-11  6.50645E-12  8.01338E-10  3.03396E-08
  8.750E-03  5.83057E-09  9.00641E-07  9.65750E-08  6.24522E-11  6.69701E-12  9.14608E-10  2.71223E-08
  9.000E-03  6.16850E-09  8.99384E-07  9.65631E-08  6.41469E-11  6.88750E-12  1.01853E-09  2.39771E-08
  9.250E-03  6.51596E-09  8.98097E-07  9.65508E-08  6.58344E-11  7.07792E-12  1.11268E-09  2.09122E-08
  9.500E-03  6.87293E-09  8.96780E-07  9.65382E-08  6.75146E-11  7.26826E-12  1.19672E-09  1.79355E-08
  9.750E-03  7.23942E-09  8.95434E-07  9.65252E-08  6.91873E-11  7.45853E-12  1.27036E-09  1.50545E-08
  1.000E-02  7.61544E-09  8.94060E-07  9.65120E-08  7.08524E-11  7.64873E-12  1.33335E-09  1.22761E-08
  1.250E-02  1.18991E-08  8.78835E-07  9.63612E-08  8.70574E-11  9.54598E-12  1.37255E-09  8.72944E-09
  1.500E-02  1.71347E-08  8.61243E-07  9.61782E-08  1.02378E-10  1.14334E-11  5.45195E-10  1.60318E-08
  1.750E-02  2.33223E-08  8.41757E-07  9.59636E-08  1.16738E-10  1.33092E-11  5.32863E-10  1.19105E-08
  2.000E-02  3.04617E-08  8.20847E-07  9.57180E-08  1.30101E-10  1.51716E-11  1.16723E-09  2.40716E-09
  2.250E-02  3.85531E-08  7.98947E-07  9.54425E-08  1.42459E-10  1.70189E-11  9.92639E-10  5.84295E-09
  2.500E-02  4.75965E-08  7.76446E-07  9.51379E-08  1.53829E-10  1.88496E-11  1.72419E-10  8.63076E-09
  2.750E-02  5.75917E-08  7.53673E-07  9.48053E-08  1.64250E-10  2.06621E-11  7.28157E-10  5.63575E-09
  3.000E-02  6.85389E-08  7.30902E-07  9.44456E-08  1.73768E-10  2.24549E-11  1.11391E-09  2.13553E-10
  3.250E-02  8.04380E-08  7.08345E-07  9.40601E-08  1.82439E-10  2.42269E-11  7.42650E-10  4.92101E-09
  3.500E-02  9.32891E-08  6.86165E-07  9.36497E-08  1.90321E-10  2.59767E-11  1.24169E-10  5.83198E-09
  3.750E-02  1.07092E-07  6.64480E-07  9.32158E-08  1.97470E-10  2.77032E-11  8.99516E-10  2.95145E-09
  4.000E-02  1.21847E-07  6.43367E-07  9.27593E-08  2.03943E-10  2.94054E-11  1.06163E-09  1.42813E-09
  4.250E-02  1.37554E-07  6.22877E-07  9.22816E-08  2.09788E-10  3.10823E-11  5.01546E-10  4.38612E-09
  4.500E-02  1.54213E-07  6.03037E-07  9.17837E-08  2.15053E-10  3.27331E-11  4.03121E-10  4.21731E-09
  4.750E-02  1.71823E-07  5.83856E-07  9.12668E-08  2.19780E-10  3.43570E-11  1.03963E-09  1.34921E-09
  5.000E-02  1.90386E-07  5.65331E-07  9.07320E-08  2.24007E-10  3.59534E-11  9.71866E-10  2.13231E-09
  5.250E-02  2.09900E-07  5.47450E-07  9.01806E-08  2.27769E-10  3.75216E-11  2.37631E-10  3.93854E-09
  5.500E-02  2.30367E-07  5.30198E-07  8.96134E-08  2.31095E-10  3.90612E-11  6.70732E-10  3.03831E-09
  5.750E-02  2.51785E-07  5.13554E-07  8.90318E-08  2.34015E-10  4.05716E-11  1.13435E-09  2.15382E-10
  6.000E-02  2.74156E-07  4.97497E-07  8.84365E-08  2.36555E-10  4.20526E-11  8.27511E-10  2.56230E-09
  6.250E-02  2.97478E-07  4.82004E-07  8.78288E-08  2.38737E-10  4.35038E-11  5.44763E-11  3.48470E-09
  6.500E-02  3.21752E-07  4.67052E-07  8.72095E-08  2.40585E-10  4.49249E-11  9.18197E-10  2.05727E-09
  6.750E-02  3.46978E-07  4.52620E-07  8.65797E-08  2.42119E-10  4.63159E-11  1.16972E-09  6.54272E-10
  7.000E-02  3.73156E-07  4.38688E-07  8.59402E-08  2.43357E-10  4.76765E-11  6.21599E-10  2.79975E-09
  7.250E-02  4.00286E-07  4.25235E-07  8.52919E-08  2.44319E-10  4.90068E-11  3.68764E-10  2.99014E-09
  7.500E-02  4.28368E-07  4.12242E-07  8.46357E-08  2.45021E-10  5.03067E-11  1.13080E-09  1.18509E-09
  7.750E-02  4.57402E-07  3.99692E-07  8.39723E-08  2.45481E-10  5.15762E-11  1.13338E-09  1.33821E-09
  8.000E-02  4.87388E-07  3.87568E-07  8.33027E-08  2.45713E-10  5.28154E-11  3.53839E-10  2.87743E-09
  8.250E-02  5.18325E-07  3.75854E-07  8.26276E-08  2.45733E-10  5.40244E-11  6.92318E-10  2.44327E-09
  8.500E-02  5.50215E-07  3.64535E-07  8.19476E-08  2.45555E-10  5.52035E-11  1.29098E-09  3.88922E-10
  8.750E-02  5.83057E-07  3.53597E-07  8.12634E-08  2.45193E-10  5.63527E-11  1.01565E-09  1.86637E-09
  9.000E-02  6.16850E-07  3.43026E-07  8.05759E-08  2.44659E-10  5.74724E-11  3.00275E-11  2.81020E-09
  9.250E-02  6.51596E-07  3.32810E-07  7.98855E-08  2.43966E-10  5.85628E-11  1.00690E-09  1.84484E-09
  9.500E-02  6.87293E-07  3.22936E-07  7.91929E-08  2.43126E-10  5.96241E-11  1.38023E-09  3.37782E-10
  9.750E-02  7.23942E-07  3.13393E-07  7.84987E-08  2.42150E-10  6.06568E-11  8.10921E-10  2.24731E-09
  1.000E-01  7.61543E-07  3.04169E-07  7.78034E-08  2.41050E-10  6.16611E-11  3.37674E-10  2.60729E-09
  1.250E-01  1.18991E-06  2.27316E-07  7.08958E-08  2.25182E-10  7.02338E-11  1.06628E-09  1.98965E-09
  1.500E-01  1.71347E-06  1.72655E-07  6.43163E-08  2.05241E-10  7.64593E-11  1.99266E-09  5.72690E-11
  1.750E-01  2.33223E-06  1.33698E-07  5.82765E-08  1.85421E-10  8.08262E-11  1.34899E-09  2.02932E-09
  2.000E-01  3.04617E-06  1.05730E-07  5.28575E-08  1.67581E-10  8.37838E-11  8.05876E-10  2.41727E-09
  2.250E-01  3.85531E-06  8.53778E-08  4.80590E-08  1.52240E-10  8.57006E-11  2.87979E-09  8.81494E-10
  2.500E-01  4.75964E-06  7.02819E-08  4.38364E-08  1.39247E-10  8.68569E-11  2.88052E-09  1.39181E-09
  2.750E-01  5.75916E-06  5.88210E-08  4.01251E-08  1.28195E-10  8.74544E-11  2.81044E-10  2.59357E-09
  3.000E-01  6.85388E-06  4.98989E-08  3.68561E-08  1.18636E-10  8.76329E-11  3.13686E-09  1.74467E-09
  3.250E-01  8.04378E-06  4.27805E-08  3.39645E-08  1.10189E-10  8.74878E-11  4.47663E-09  5.06501E-10
  3.500E-01  9.32888E-06  3.69744E-08  3.13929E-08  1.02560E-10  8.70847E-11  2.16223E-09  2.38720E-09
  3.750E-01  1.07092E-05  3.21503E-08  2.90931E-08  9.55492E-11  8.64703E-11  2.42266E-09  2.39632E-09
  4.000E-01  1.21846E-05  2.80833E-08  2.70253E-08  8.90266E-11  8.56801E-11  5.67243E-09  4.94854E-10
  4.250E-01  1.37553E-05  2.46166E-08  2.51572E-08  8.29143E-11  8.47431E-11  4.56694E-09  1.84095E-09
  4.500E-01  1.54212E-05  2.16377E-08  2.34626E-08  7.71680E-11  8.36844E-11  6.09406E-10  2.75910E-09
  4.750E-01  1.71822E-05  1.90633E-08  2.19200E-08  7.17639E-11  8.25266E-11  6.02034E-09  1.49252E-09
  5.000E-01  1.90385E-05  1.68292E-08  2.05119E-08  6.66884E-11  8.12903E-11  7.07423E-09  1.00325E-09
  5.250E-01  2.09899E-05  1.48847E-08  1.92235E-08  6.19322E-11  7.99942E-11  2.27121E-09  2.76441E-09
  5.500E-01  2.30365E-05  1.31882E-08  1.80424E-08  5.74864E-11  7.86551E-11  5.08523E-09  2.35907E-09
  5.750E-01  2.51783E-05  1.17051E-08  1.69578E-08  5.33412E-11  7.72879E-11  9.08255E-09  4.96357E-11
  6.000E-01  2.74153E-05  1.04064E-08  1.59604E-08  4.94844E-11  7.59053E-11  5.91930E-09  2.36645E-09
  6.250E-01  2.97475E-05  9.26697E-09  1.50419E-08  4.59025E-11  7.45183E-11  2.59229E-09  2.95343E-09
  6.500E-01  3.21749E-05  8.26557E-09  1.41949E-08  4.25799E-11  7.31358E-11  9.89946E-09  1.18818E-09
  6.750E-01  3.46974E-05  7.38378E-09  1.34129E-08  3.95004E-11  7.17652E-11  9.72521E-09  1.57839E-09
  7.000E-01  3.73152E-05  6.60574E-09  1.26899E-08  3.66469E-11  7.04122E-11  1.41156E-09  3.15399E-09
  7.250E-01  4.00281E-05  5.91776E-09  1.20206E-08  3.40026E-11  6.90812E-11  8.92675E-09  2.24353E-09
  7.500E-01  4.28362E-05  5.30805E-09  1.14002E-08  3.15509E-11  6.77755E-11  1.28573E-08  4.86661E-10
  7.750E-01  4.57395E-05  4.76645E-09  1.08243E-08  2.92759E-11  6.64974E-11  6.48570E-09  2.89377E-09
  8.000E-01  4.87380E-05  4.28418E-09  1.02890E-08  2.71624E-11  6.52485E-11  5.84704E-09  3.04196E-09
  8.250E-01  5.18317E-05  3.85370E-09  9.79072E-09  2.51965E-11  6.40295E-11  1.44358E-08  7.60331E-10
  8.500E-01  5.50205E-05  3.46852E-09  9.32628E-09  2.33651E-11  6.28410E-11  1.18337E-08  2.17950E-09
  8.750E-01  5.83045E-05  3.12302E-09  8.89276E-09  2.16562E-11  6.16829E-11  7.49957E-10  3.44005E-09
  9.000E-01  6.16838E-05  2.81237E-09  8.48755E-09  2.00591E-11  6.05548E-11  1.37316E-08  1.97812E-09
  9.250E-01  6.51582E-05  2.53240E-09  8.10827E-09  1.85637E-11  5.94563E-11  1.64291E-08  1.09314E-09
  9.500E-01  6.87277E-05  2.27951E-09  7.75279E-09  1.71613E-11  5.83866E-11  5.82579E-09  3.35146E-09
  9.750E-01  7.23925E-05  2.05059E-09  7.41917E-09  1.58438E-11  5.73450E-11  1.03471E-08  2.97733E-09
  1.000E+00  7.61524E-05  1.84292E-09  7.10566E-09  1.46040E-11  5.63306E-11  2.51806E-11  8.07364E-12
  1.100E+00  9.21439E-05  1.18219E-09  6.02328E-09  1.03037E-11  5.25268E-11  1.22130E-11  1.66539E-11
  1.200E+00  1.09658E-04  7.19417E-10  5.15961E-09  6.83866E-12  4.90873E-11  6.14165E-13  1.61888E-11
  1.300E+00  1.28695E-04  3.88787E-10  4.45938E-09  4.00154E-12  4.59627E-11  7.03890E-12  1.12359E-11
  1.400E+00  1.49255E-04  1.49439E-10  3.88394E-09  1.65316E-12  4.31127E-11  1.00676E-11  5.16713E-12
  1.500E+00  1.71338E-04 -2.51134E-11  3.40563E-09 -3.04305E-13  4.05051E-11  9.16709E-12  7.71387E-14
  1.600E+00  1.94942E-04 -1.52714E-10  3.00416E-09 -1.94307E-12  3.81136E-11  5.80538E-12  3.07228E-12
  1.700E+00  2.20070E-04 -2.45775E-10  2.66433E-09 -3.31872E-12  3.59163E-11  1.64732E-12  4.18231E-12
  1.800E+00  2.46720E-04 -3.13147E-10  2.37454E-09 -4.47541E-12  3.38941E-11  1.90429E-12  3.69958E-12
  1.900E+00  2.74892E-04 -3.61265E-10  2.12577E-09 -5.44892E-12  3.20302E-11  3.98802E-12  2.31142E-12
  2.000E+00  3.04586E-04 -3.94868E-10  1.91094E-09 -6.26864E-12  3.03098E-11  4.36614E-12  7.00634E-13
  2.100E+00  3.35803E-04 -4.17492E-10  1.72437E-09 -6.95886E-12  2.87193E-11  3.33427E-12  6.17343E-13
  2.200E+00  3.68542E-04 -4.31792E-10  1.56152E-09 -7.53978E-12  2.72465E-11  1.51650E-12  1.36670E-12
  2.300E+00  4.02802E-04 -4.39776E-10  1.41869E-09 -8.02823E-12  2.58806E-11  3.77735E-13  1.50626E-12
  2.400E+00  4.38585E-04 -4.42972E-10  1.29286E-09 -8.43824E-12  2.46116E-11  1.76954E-12  1.17033E-12
  2.500E+00  4.75889E-04 -4.42547E-10  1.18154E-09 -8.78156E-12  2.34306E-11  2.34488E-12  5.83906E-13
  2.600E+00  5.14715E-04 -4.39396E-10  1.08266E-09 -9.06803E-12  2.23296E-11  2.09025E-12  2.09604E-14
  2.700E+00  5.55063E-04 -4.34210E-10  9.94522E-10 -9.30591E-12  2.13015E-11  1.23901E-12  4.68258E-13
  2.800E+00  5.96931E-04 -4.27518E-10  9.15669E-10 -9.50215E-12  2.03399E-11  1.57494E-13  6.70442E-13
  2.900E+00  6.40321E-04 -4.19732E-10  8.44895E-10 -9.66262E-12  1.94389E-11  7.85081E-13  6.28954E-13
  3.000E+00  6.85233E-04 -4.11170E-10  7.81172E-10 -9.79228E-12  1.85933E-11  1.32595E-12  4.13453E-13
  3.100E+00  7.31665E-04 -4.02078E-10  7.23631E-10 -9.89535E-12  1.77986E-11  1.36677E-12  1.25678E-13
  3.200E+00  7.79618E-04 -3.92647E-10  6.71526E-10 -9.97540E-12  1.70506E-11  9.76312E-13  1.36024E-13
  3.300E+00  8.29092E-04 -3.83026E-10  6.24221E-10 -1.00355E-11  1.63455E-11  3.42721E-13  3.01959E-13
  3.400E+00  8.80086E-04 -3.73327E-10  5.81166E-10 -1.00782E-11  1.56800E-11  3.01866E-13  3.44807E-13
  3.500E+00  9.32601E-04 -3.63640E-10  5.41887E-10 -1.01059E-11  1.50509E-11  7.56519E-13  2.77672E-13
  3.600E+00  9.86636E-04 -3.54030E-10  5.05974E-10 -1.01204E-11  1.44556E-11  9.08863E-13  1.42980E-13
  3.700E+00  1.04219E-03 -3.44548E-10  4.73068E-10 -1.01235E-11  1.38915E-11  7.55707E-13  7.38338E-15
  3.800E+00  1.09927E-03 -3.35233E-10  4.42858E-10 -1.01165E-11  1.33565E-11  3.86402E-13  1.26431E-13
  3.900E+00  1.15786E-03 -3.26112E-10  4.15069E-10 -1.01007E-11  1.28484E-11  5.36406E-14  1.86209E-13
  4.000E+00  1.21797E-03 -3.17206E-10  3.89461E-10 -1.00773E-11  1.23654E-11  4.18354E-13  1.80441E-13
  4.100E+00  1.27961E-03 -3.08528E-10  3.65823E-10 -1.00472E-11  1.19058E-11  6.04021E-13  1.22690E-13
  4.200E+00  1.34276E-03 -3.00088E-10  3.43967E-10 -1.00112E-11  1.14681E-11  5.75761E-13  3.92445E-14
  4.300E+00  1.40743E-03 -2.91890E-10  3.23727E-10 -9.97006E-12  1.10508E-11  3.69956E-13  4.09659E-14
  4.400E+00  1.47362E-03 -2.83936E-10  3.04956E-10 -9.92447E-12  1.06526E-11  7.27576E-14  9.51696E-14
  4.500E+00  1.54133E-03 -2.76227E-10  2.87522E-10 -9.87497E-12  1.02724E-11  2.10872E-13  1.12734E-13
  4.600E+00  1.61056E-03 -2.68760E-10  2.71309E-10 -9.82207E-12  9.90899E-12  3.94373E-13  9.40521E-14
  4.700E+00  1.68131E-03 -2.61531E-10  2.56210E-10 -9.76622E-12  9.56143E-12  4.31746E-13  5.12444E-14
  4.800E+00  1.75357E-03 -2.54537E-10  2.42131E-10 -9.70782E-12  9.22875E-12  3.27660E-13  1.42285E-16
  4.900E+00  1.82735E-03 -2.47772E-10  2.28989E-10 -9.64721E-12  8.91011E-12  1.32165E-13  4.24267E-14
  5.000E+00  1.90265E-03 -2.41230E-10  2.16707E-10 -9.58472E-12  8.60470E-12  8.28096E-14  6.59776E-14
  5.100E+00  1.97947E-03 -2.34904E-10  2.05215E-10 -9.52061E-12  8.31179E-12  2.48125E-13  6.70094E-14
  5.200E+00  2.05780E-03 -2.28789E-10  1.94452E-10 -9.45515E-12  8.03068E-12  3.16507E-13  4.80922E-14
  5.300E+00  2.13765E-03 -2.22878E-10  1.84361E-10 -9.38854E-12  7.76074E-12  2.76811E-13  1.83637E-14
  5.400E+00  2.21902E-03 -2.17164E-10  1.74891E-10 -9.32099E-12  7.50138E-12  1.53847E-13  1.27537E-14
