 #  Scattering amplitudes (in cm)      MU=(1-cos(TH))/2
 #  Z =  47,   projectile: electron
 #  Kinetic energy = 3.05000E+06 eV
 #
 # TH (deg)      MU          Re(F)        Im(F)        Re(G)        Im(G)        ERRF         ERRG 
 #-----------------------------------------------------------------------------------------------------------------
  0.000E+00  0.00000E+00  5.91051E-07  6.23530E-08  0.00000E+00  0.00000E+00  5.52260E-09  0.00000E+00
  1.000E-04  7.61557E-13  5.91050E-07  6.23530E-08  4.41779E-13  4.66112E-14  5.52190E-09  3.37338E-08
  1.250E-04  1.18994E-12  5.91049E-07  6.23530E-08  5.52223E-13  5.82640E-14  5.52150E-09  3.37326E-08
  1.500E-04  1.71346E-12  5.91049E-07  6.23530E-08  6.62667E-13  6.99168E-14  5.52102E-09  3.37312E-08
  1.750E-04  2.33225E-12  5.91048E-07  6.23530E-08  7.73110E-13  8.15696E-14  5.52045E-09  3.37294E-08
  2.000E-04  3.04617E-12  5.91047E-07  6.23530E-08  8.83554E-13  9.32224E-14  5.51979E-09  3.37274E-08
  2.250E-04  3.85530E-12  5.91047E-07  6.23530E-08  9.93996E-13  1.04875E-13  5.51904E-09  3.37252E-08
  2.500E-04  4.75964E-12  5.91046E-07  6.23530E-08  1.10444E-12  1.16528E-13  5.51821E-09  3.37227E-08
  2.750E-04  5.75917E-12  5.91045E-07  6.23530E-08  1.21488E-12  1.28181E-13  5.51729E-09  3.37199E-08
  3.000E-04  6.85391E-12  5.91043E-07  6.23530E-08  1.32532E-12  1.39833E-13  5.51628E-09  3.37168E-08
  3.250E-04  8.04379E-12  5.91042E-07  6.23530E-08  1.43576E-12  1.51486E-13  5.51519E-09  3.37135E-08
  3.500E-04  9.32893E-12  5.91041E-07  6.23530E-08  1.54620E-12  1.63139E-13  5.51400E-09  3.37099E-08
  3.750E-04  1.07092E-11  5.91039E-07  6.23529E-08  1.65664E-12  1.74792E-13  5.51273E-09  3.37061E-08
  4.000E-04  1.21847E-11  5.91038E-07  6.23529E-08  1.76708E-12  1.86444E-13  5.51137E-09  3.37020E-08
  4.250E-04  1.37554E-11  5.91036E-07  6.23529E-08  1.87752E-12  1.98097E-13  5.50992E-09  3.36976E-08
  4.500E-04  1.54213E-11  5.91034E-07  6.23529E-08  1.98795E-12  2.09750E-13  5.50839E-09  3.36930E-08
  4.750E-04  1.71823E-11  5.91033E-07  6.23529E-08  2.09839E-12  2.21403E-13  5.50677E-09  3.36881E-08
  5.000E-04  1.90386E-11  5.91031E-07  6.23529E-08  2.20882E-12  2.33055E-13  5.50506E-09  3.36829E-08
  5.250E-04  2.09900E-11  5.91029E-07  6.23529E-08  2.31925E-12  2.44708E-13  5.50326E-09  3.36775E-08
  5.500E-04  2.30367E-11  5.91027E-07  6.23528E-08  2.42969E-12  2.56361E-13  5.50138E-09  3.36718E-08
  5.750E-04  2.51785E-11  5.91024E-07  6.23528E-08  2.54012E-12  2.68013E-13  5.49941E-09  3.36658E-08
  6.000E-04  2.74156E-11  5.91022E-07  6.23528E-08  2.65055E-12  2.79666E-13  5.49735E-09  3.36596E-08
  6.250E-04  2.97478E-11  5.91020E-07  6.23528E-08  2.76098E-12  2.91319E-13  5.49520E-09  3.36531E-08
  6.500E-04  3.21752E-11  5.91017E-07  6.23527E-08  2.87140E-12  3.02971E-13  5.49297E-09  3.36463E-08
  6.750E-04  3.46979E-11  5.91014E-07  6.23527E-08  2.98183E-12  3.14624E-13  5.49065E-09  3.36393E-08
  7.000E-04  3.73157E-11  5.91012E-07  6.23527E-08  3.09225E-12  3.26277E-13  5.48825E-09  3.36320E-08
  7.250E-04  4.00286E-11  5.91009E-07  6.23527E-08  3.20267E-12  3.37929E-13  5.48575E-09  3.36245E-08
  7.500E-04  4.28368E-11  5.91006E-07  6.23526E-08  3.31309E-12  3.49582E-13  5.48317E-09  3.36167E-08
  7.750E-04  4.57402E-11  5.91003E-07  6.23526E-08  3.42351E-12  3.61234E-13  5.48050E-09  3.36086E-08
  8.000E-04  4.87388E-11  5.91000E-07  6.23526E-08  3.53393E-12  3.72887E-13  5.47775E-09  3.36003E-08
  8.250E-04  5.18325E-11  5.90997E-07  6.23526E-08  3.64435E-12  3.84539E-13  5.47491E-09  3.35917E-08
  8.500E-04  5.50215E-11  5.90993E-07  6.23525E-08  3.75476E-12  3.96192E-13  5.47198E-09  3.35828E-08
  8.750E-04  5.83057E-11  5.90990E-07  6.23525E-08  3.86517E-12  4.07844E-13  5.46897E-09  3.35737E-08
  9.000E-04  6.16850E-11  5.90986E-07  6.23525E-08  3.97558E-12  4.19497E-13  5.46587E-09  3.35643E-08
  9.250E-04  6.51595E-11  5.90983E-07  6.23524E-08  4.08599E-12  4.31149E-13  5.46268E-09  3.35547E-08
  9.500E-04  6.87293E-11  5.90979E-07  6.23524E-08  4.19639E-12  4.42802E-13  5.45941E-09  3.35448E-08
  9.750E-04  7.23943E-11  5.90975E-07  6.23524E-08  4.30680E-12  4.54454E-13  5.45605E-09  3.35346E-08
  1.000E-03  7.61544E-11  5.90971E-07  6.23523E-08  4.41720E-12  4.66107E-13  5.45260E-09  3.35241E-08
  1.250E-03  1.18991E-10  5.90927E-07  6.23519E-08  5.52108E-12  5.82630E-13  5.41342E-09  3.34054E-08
  1.500E-03  1.71347E-10  5.90872E-07  6.23515E-08  6.62469E-12  6.99150E-13  5.36571E-09  3.32606E-08
  1.750E-03  2.33223E-10  5.90808E-07  6.23509E-08  7.72796E-12  8.15668E-13  5.30960E-09  3.30901E-08
  2.000E-03  3.04617E-10  5.90734E-07  6.23502E-08  8.83085E-12  9.32182E-13  5.24521E-09  3.28940E-08
  2.250E-03  3.85531E-10  5.90650E-07  6.23495E-08  9.93329E-12  1.04869E-12  5.17269E-09  3.26726E-08
  2.500E-03  4.75965E-10  5.90556E-07  6.23486E-08  1.10352E-11  1.16520E-12  5.09221E-09  3.24264E-08
  2.750E-03  5.75917E-10  5.90452E-07  6.23477E-08  1.21366E-11  1.28170E-12  5.00395E-09  3.21557E-08
  3.000E-03  6.85389E-10  5.90339E-07  6.23467E-08  1.32374E-11  1.39819E-12  4.90813E-09  3.18608E-08
  3.250E-03  8.04380E-10  5.90215E-07  6.23456E-08  1.43375E-11  1.51468E-12  4.80496E-09  3.15423E-08
  3.500E-03  9.32891E-10  5.90082E-07  6.23444E-08  1.54369E-11  1.63116E-12  4.69468E-09  3.12006E-08
  3.750E-03  1.07092E-09  5.89939E-07  6.23431E-08  1.65356E-11  1.74764E-12  4.57756E-09  3.08363E-08
  4.000E-03  1.21847E-09  5.89787E-07  6.23417E-08  1.76334E-11  1.86411E-12  4.45385E-09  3.04499E-08
  4.250E-03  1.37554E-09  5.89624E-07  6.23403E-08  1.87303E-11  1.98057E-12  4.32386E-09  3.00419E-08
  4.500E-03  1.54213E-09  5.89452E-07  6.23387E-08  1.98263E-11  2.09702E-12  4.18787E-09  2.96131E-08
  4.750E-03  1.71823E-09  5.89271E-07  6.23371E-08  2.09213E-11  2.21346E-12  4.04620E-09  2.91640E-08
  5.000E-03  1.90386E-09  5.89079E-07  6.23353E-08  2.20153E-11  2.32990E-12  3.89917E-09  2.86954E-08
  5.250E-03  2.09900E-09  5.88878E-07  6.23335E-08  2.31082E-11  2.44632E-12  3.74714E-09  2.82079E-08
  5.500E-03  2.30367E-09  5.88668E-07  6.23316E-08  2.41999E-11  2.56274E-12  3.59043E-09  2.77023E-08
  5.750E-03  2.51785E-09  5.88448E-07  6.23296E-08  2.52904E-11  2.67914E-12  3.42943E-09  2.71792E-08
  6.000E-03  2.74156E-09  5.88218E-07  6.23276E-08  2.63797E-11  2.79553E-12  3.26448E-09  2.66396E-08
  6.250E-03  2.97478E-09  5.87979E-07  6.23254E-08  2.74677E-11  2.91191E-12  3.09598E-09  2.60842E-08
  6.500E-03  3.21752E-09  5.87730E-07  6.23231E-08  2.85543E-11  3.02827E-12  2.92429E-09  2.55138E-08
  6.750E-03  3.46978E-09  5.87472E-07  6.23208E-08  2.96396E-11  3.14463E-12  2.74983E-09  2.49293E-08
  7.000E-03  3.73156E-09  5.87205E-07  6.23184E-08  3.07234E-11  3.26097E-12  2.57297E-09  2.43315E-08
  7.250E-03  4.00286E-09  5.86928E-07  6.23158E-08  3.18056E-11  3.37730E-12  2.39412E-09  2.37213E-08
  7.500E-03  4.28368E-09  5.86642E-07  6.23132E-08  3.28863E-11  3.49361E-12  2.21369E-09  2.30997E-08
  7.750E-03  4.57402E-09  5.86347E-07  6.23105E-08  3.39654E-11  3.60991E-12  2.03207E-09  2.24674E-08
  8.000E-03  4.87388E-09  5.86043E-07  6.23078E-08  3.50429E-11  3.72619E-12  1.84969E-09  2.18254E-08
  8.250E-03  5.18326E-09  5.85729E-07  6.23049E-08  3.61186E-11  3.84245E-12  1.66693E-09  2.11747E-08
  8.500E-03  5.50215E-09  5.85406E-07  6.23019E-08  3.71926E-11  3.95870E-12  1.48422E-09  2.05161E-08
  8.750E-03  5.83057E-09  5.85074E-07  6.22989E-08  3.82648E-11  4.07494E-12  1.30196E-09  1.98507E-08
  9.000E-03  6.16850E-09  5.84733E-07  6.22957E-08  3.93352E-11  4.19115E-12  1.12055E-09  1.91793E-08
  9.250E-03  6.51596E-09  5.84383E-07  6.22925E-08  4.04037E-11  4.30735E-12  9.40379E-10  1.85030E-08
  9.500E-03  6.87293E-09  5.84025E-07  6.22892E-08  4.14702E-11  4.42353E-12  7.61856E-10  1.78226E-08
  9.750E-03  7.23942E-09  5.83657E-07  6.22858E-08  4.25347E-11  4.53969E-12  5.85363E-10  1.71391E-08
  1.000E-02  7.61544E-09  5.83280E-07  6.22823E-08  4.35972E-11  4.65583E-12  4.11282E-10  1.64534E-08
  1.250E-02  1.18991E-08  5.79041E-07  6.22427E-08  5.41004E-11  5.81609E-12  1.11944E-09  9.68183E-09
  1.500E-02  1.71347E-08  5.73982E-07  6.21944E-08  6.43533E-11  6.97389E-12  2.07142E-09  3.65792E-09
  1.750E-02  2.33223E-08  5.68170E-07  6.21374E-08  7.43187E-11  8.12876E-12  2.29197E-09  9.44929E-10
  2.000E-02  3.04617E-08  5.61679E-07  6.20720E-08  8.39652E-11  9.28022E-12  1.81554E-09  3.75641E-09
  2.250E-02  3.85531E-08  5.54584E-07  6.19981E-08  9.32677E-11  1.04278E-11  8.47882E-10  4.74982E-09
  2.500E-02  4.75965E-08  5.46964E-07  6.19159E-08  1.02207E-10  1.15711E-11  2.93643E-10  4.21383E-09
  2.750E-02  5.75917E-08  5.38899E-07  6.18256E-08  1.10770E-10  1.27097E-11  1.26781E-09  2.66436E-09
  3.000E-02  6.85389E-08  5.30464E-07  6.17271E-08  1.18949E-10  1.38430E-11  1.80165E-09  7.17719E-10
  3.250E-02  8.04380E-08  5.21734E-07  6.16208E-08  1.26740E-10  1.49708E-11  1.76197E-09  1.04598E-09
  3.500E-02  9.32891E-08  5.12776E-07  6.15067E-08  1.34146E-10  1.60925E-11  1.18704E-09  2.19927E-09
  3.750E-02  1.07092E-07  5.03655E-07  6.13850E-08  1.41171E-10  1.72079E-11  2.69731E-10  2.53931E-09
  4.000E-02  1.21847E-07  4.94427E-07  6.12558E-08  1.47824E-10  1.83164E-11  7.02548E-10  2.10234E-09
  4.250E-02  1.37554E-07  4.85144E-07  6.11194E-08  1.54114E-10  1.94179E-11  1.43401E-09  1.12174E-09
  4.500E-02  1.54213E-07  4.75850E-07  6.09759E-08  1.60053E-10  2.05118E-11  1.70773E-09  5.63804E-11
  4.750E-02  1.71823E-07  4.66584E-07  6.08254E-08  1.65656E-10  2.15980E-11  1.44868E-09  1.07609E-09
  5.000E-02  1.90386E-07  4.57379E-07  6.06682E-08  1.70934E-10  2.26759E-11  7.44233E-10  1.66650E-09
  5.250E-02  2.09900E-07  4.48262E-07  6.05045E-08  1.75903E-10  2.37455E-11  1.83832E-10  1.70527E-09
  5.500E-02  2.30367E-07  4.39256E-07  6.03344E-08  1.80577E-10  2.48063E-11  1.04749E-09  1.23702E-09
  5.750E-02  2.51785E-07  4.30378E-07  6.01581E-08  1.84970E-10  2.58581E-11  1.58033E-09  4.45427E-10
  6.000E-02  2.74156E-07  4.21643E-07  5.99759E-08  1.89095E-10  2.69006E-11  1.61877E-09  4.10198E-10
  6.250E-02  2.97478E-07  4.13061E-07  5.97879E-08  1.92965E-10  2.79337E-11  1.15193E-09  1.07404E-09
  6.500E-02  3.21752E-07  4.04640E-07  5.95943E-08  1.96592E-10  2.89570E-11  3.24997E-10  1.36601E-09
  6.750E-02  3.46978E-07  3.96386E-07  5.93953E-08  1.99989E-10  2.99703E-11  6.05214E-10  1.22749E-09
  7.000E-02  3.73156E-07  3.88300E-07  5.91911E-08  2.03166E-10  3.09735E-11  1.34919E-09  7.29676E-10
  7.250E-02  4.00286E-07  3.80386E-07  5.89819E-08  2.06133E-10  3.19663E-11  1.67410E-09  4.43466E-11
  7.500E-02  4.28368E-07  3.72643E-07  5.87678E-08  2.08900E-10  3.29486E-11  1.47624E-09  6.12423E-10
  7.750E-02  4.57402E-07  3.65070E-07  5.85492E-08  2.11476E-10  3.39202E-11  8.14050E-10  1.04599E-09
  8.000E-02  4.87388E-07  3.57665E-07  5.83261E-08  2.13870E-10  3.48810E-11  1.08828E-10  1.13899E-09
  8.250E-02  5.18325E-07  3.50426E-07  5.80987E-08  2.16090E-10  3.58308E-11  1.00571E-09  8.81730E-10
  8.500E-02  5.50215E-07  3.43349E-07  5.78672E-08  2.18143E-10  3.67695E-11  1.59541E-09  3.69459E-10
  8.750E-02  5.83057E-07  3.36433E-07  5.76319E-08  2.20035E-10  3.76971E-11  1.68997E-09  2.30964E-10
  9.000E-02  6.16850E-07  3.29673E-07  5.73928E-08  2.21774E-10  3.86133E-11  1.25434E-09  7.34036E-10
  9.250E-02  6.51596E-07  3.23066E-07  5.71502E-08  2.23366E-10  3.95181E-11  4.19085E-10  9.91733E-10
  9.500E-02  6.87293E-07  3.16607E-07  5.69041E-08  2.24817E-10  4.04115E-11  5.58455E-10  9.36150E-10
  9.750E-02  7.23942E-07  3.10294E-07  5.66549E-08  2.26133E-10  4.12933E-11  1.37307E-09  5.96608E-10
  1.000E-01  7.61543E-07  3.04122E-07  5.64026E-08  2.27318E-10  4.21635E-11  1.76660E-09  8.71048E-11
  1.250E-01  1.18991E-06  2.49435E-07  5.37451E-08  2.33054E-10  5.02215E-11  1.43925E-09  5.42060E-10
  1.500E-01  1.71347E-06  2.05531E-07  5.09365E-08  2.30440E-10  5.71169E-11  4.78792E-10  7.39731E-10
  1.750E-01  2.33223E-06  1.70188E-07  4.80860E-08  2.22618E-10  6.29078E-11  8.88471E-10  6.73626E-10
  2.000E-01  3.04617E-06  1.41734E-07  4.52740E-08  2.11884E-10  6.76909E-11  2.20333E-09  3.85128E-10
  2.250E-01  3.85531E-06  1.18828E-07  4.25568E-08  1.99848E-10  7.15826E-11  2.90065E-09  2.65711E-11
  2.500E-01  4.75964E-06  1.00379E-07  3.99713E-08  1.87579E-10  7.47049E-11  2.53500E-09  4.22540E-10
  2.750E-01  5.75916E-06  8.54905E-08  3.75390E-08  1.75734E-10  7.71756E-11  1.01994E-09  6.64820E-10
  3.000E-01  6.85388E-06  7.34346E-08  3.52697E-08  1.64676E-10  7.91030E-11  1.24148E-09  6.64902E-10
  3.250E-01  8.04378E-06  6.36228E-08  3.31649E-08  1.54563E-10  8.05817E-11  3.43161E-09  4.19297E-10
  3.500E-01  9.32888E-06  5.55844E-08  3.12201E-08  1.45423E-10  8.16925E-11  4.60675E-09  1.49853E-11
  3.750E-01  1.07092E-05  4.89459E-08  2.94272E-08  1.37203E-10  8.25021E-11  4.09745E-09  4.00228E-10
  4.000E-01  1.21846E-05  4.34132E-08  2.77759E-08  1.29808E-10  8.30650E-11  1.84738E-09  6.72103E-10
  4.250E-01  1.37553E-05  3.87565E-08  2.62547E-08  1.23128E-10  8.34242E-11  1.47339E-09  6.98001E-10
  4.500E-01  1.54212E-05  3.47968E-08  2.48522E-08  1.17051E-10  8.36139E-11  4.65731E-09  4.65911E-10
  4.750E-01  1.71822E-05  3.13952E-08  2.35571E-08  1.11477E-10  8.36608E-11  6.39928E-09  5.95233E-11
  5.000E-01  1.90385E-05  2.84446E-08  2.23589E-08  1.06316E-10  8.35858E-11  5.82464E-09  3.72372E-10
  5.250E-01  2.09899E-05  2.58617E-08  2.12480E-08  1.01496E-10  8.34054E-11  2.89377E-09  6.70557E-10
  5.500E-01  2.30365E-05  2.35822E-08  2.02156E-08  9.69575E-11  8.31326E-11  1.49361E-09  7.23925E-10
  5.750E-01  2.51783E-05  2.15560E-08  1.92540E-08  9.26558E-11  8.27784E-11  5.76302E-09  5.10549E-10
  6.000E-01  2.74153E-05  1.97438E-08  1.83565E-08  8.85565E-11  8.23518E-11  8.22522E-09  1.06352E-10
  6.250E-01  2.97475E-05  1.81145E-08  1.75168E-08  8.46345E-11  8.18605E-11  7.73485E-09  3.41835E-10
  6.500E-01  3.21749E-05  1.66434E-08  1.67300E-08  8.08721E-11  8.13115E-11  4.19498E-09  6.69328E-10
  6.750E-01  3.46974E-05  1.53105E-08  1.59912E-08  7.72569E-11  8.07113E-11  1.30562E-09  7.53750E-10
  7.000E-01  3.73152E-05  1.40993E-08  1.52966E-08  7.37803E-11  8.00657E-11  6.80997E-09  5.60520E-10
  7.250E-01  4.00281E-05  1.29961E-08  1.46425E-08  7.04367E-11  7.93804E-11  1.01805E-08  1.56855E-10
  7.500E-01  4.28362E-05  1.19895E-08  1.40258E-08  6.72222E-11  7.86604E-11  9.91954E-09  3.11344E-10
  7.750E-01  4.57395E-05  1.10697E-08  1.34439E-08  6.41339E-11  7.79109E-11  5.81074E-09  6.71946E-10
  8.000E-01  4.87380E-05  1.02281E-08  1.28941E-08  6.11696E-11  7.71364E-11  8.85187E-10  7.89649E-10
  8.250E-01  5.18317E-05  9.45720E-09  1.23743E-08  5.83271E-11  7.63412E-11  7.79671E-09  6.16650E-10
  8.500E-01  5.50205E-05  8.75053E-09  1.18825E-08  5.56043E-11  7.55295E-11  1.22727E-08  2.11932E-10
  8.750E-01  5.83045E-05  8.10219E-09  1.14168E-08  5.29988E-11  7.47050E-11  1.23914E-08  2.78586E-10
  9.000E-01  6.16838E-05  7.50690E-09  1.09756E-08  5.05079E-11  7.38711E-11  7.76511E-09  6.74520E-10
  9.250E-01  6.51582E-05  6.95995E-09  1.05574E-08  4.81288E-11  7.30309E-11  1.89085E-10  8.27295E-10
  9.500E-01  6.87277E-05  6.45705E-09  1.01607E-08  4.58580E-11  7.21872E-11  8.66181E-09  6.75889E-10
  9.750E-01  7.23925E-05  5.99433E-09  9.78417E-09  4.36921E-11  7.13426E-11  1.44361E-08  2.71109E-10
  1.000E+00  7.61524E-05  5.56827E-09  9.42666E-09  4.16272E-11  7.04992E-11  8.95831E-13  1.96282E-12
  1.100E+00  9.21439E-05  4.17079E-09  8.16492E-09  3.42977E-11  6.71732E-11  9.21726E-13  1.37456E-13
  1.200E+00  1.09658E-04  3.15005E-09  7.12838E-09  2.82581E-11  6.39807E-11  6.26217E-13  8.46443E-13
  1.300E+00  1.28695E-04  2.39336E-09  6.26934E-09  2.32583E-11  6.09631E-11  2.23539E-13  1.09064E-12
  1.400E+00  1.49255E-04  1.82359E-09  5.55095E-09  1.90832E-11  5.81331E-11  1.20125E-13  8.55235E-13
  1.500E+00  1.71338E-04  1.38789E-09  4.94477E-09  1.55596E-11  5.54870E-11  3.13609E-13  4.22607E-13
  1.600E+00  1.94942E-04  1.04989E-09  4.42883E-09  1.25531E-11  5.30138E-11  3.41027E-13  1.25445E-14
  1.700E+00  2.20070E-04  7.84306E-10  3.98610E-09  9.96159E-12  5.06994E-11  2.42588E-13  2.50880E-13
  1.800E+00  2.46720E-04  5.73346E-10  3.60334E-09  7.70792E-12  4.85299E-11  8.62455E-14  3.35058E-13
  1.900E+00  2.74892E-04  4.04270E-10  3.27015E-09  5.73372E-12  4.64922E-11  6.00704E-14  2.75081E-13
  2.000E+00  3.04586E-04  2.67804E-10  2.97833E-09  3.99428E-12  4.45747E-11  1.49467E-13  1.38915E-13
  2.100E+00  3.35803E-04  1.57071E-10  2.72133E-09  2.45480E-12  4.27674E-11  1.65248E-13  3.68576E-15
  2.200E+00  3.68542E-04  6.68845E-11  2.49386E-09  1.08766E-12  4.10614E-11  1.19163E-13  1.02791E-13
  2.300E+00  4.02802E-04 -6.73707E-12  2.29163E-09 -1.29490E-13  3.94493E-11  4.07724E-14  1.37718E-13
  2.400E+00  4.38585E-04 -6.68937E-11  2.11112E-09 -1.21512E-12  3.79243E-11  3.58548E-14  1.14721E-13
  2.500E+00  4.75889E-04 -1.16032E-10  1.94939E-09 -2.18476E-12  3.64805E-11  8.43756E-14  5.74537E-14
  2.600E+00  5.14715E-04 -1.56105E-10  1.80401E-09 -3.05165E-12  3.51126E-11  9.33799E-14  5.43330E-15
  2.700E+00  5.55063E-04 -1.88686E-10  1.67293E-09 -3.82723E-12  3.38157E-11  6.72090E-14  5.08170E-14
  2.800E+00  5.96931E-04 -2.15055E-10  1.55438E-09 -4.52146E-12  3.25853E-11  2.16379E-14  6.72916E-14
  2.900E+00  6.40321E-04 -2.36256E-10  1.44690E-09 -5.14307E-12  3.14174E-11  2.37977E-14  5.59881E-14
  3.000E+00  6.85233E-04 -2.53151E-10  1.34920E-09 -5.69977E-12  3.03082E-11  5.28615E-14  2.73694E-14
  3.100E+00  7.31665E-04 -2.66449E-10  1.26017E-09 -6.19838E-12  2.92539E-11  5.80732E-14  4.79103E-15
  3.200E+00  7.79618E-04 -2.76741E-10  1.17888E-09 -6.64493E-12  2.82513E-11  4.13458E-14  2.83409E-14
  3.300E+00  8.29092E-04 -2.84518E-10  1.10447E-09 -7.04479E-12  2.72973E-11  1.23279E-14  3.67710E-14
  3.400E+00  8.80086E-04 -2.90188E-10  1.03625E-09 -7.40273E-12  2.63889E-11  1.68472E-14  3.03273E-14
  3.500E+00  9.32601E-04 -2.94096E-10  9.73553E-10 -7.72301E-12  2.55233E-11  3.54719E-14  1.43333E-14
  3.600E+00  9.86636E-04 -2.96529E-10  9.15841E-10 -8.00941E-12  2.46980E-11  3.84899E-14  3.82780E-15
  3.700E+00  1.04219E-03 -2.97728E-10  8.62619E-10 -8.26530E-12  2.39106E-11  2.71331E-14  1.71056E-14
  3.800E+00  1.09927E-03 -2.97896E-10  8.13451E-10 -8.49370E-12  2.31587E-11  7.22571E-15  2.17227E-14
  3.900E+00  1.15786E-03 -2.97206E-10  7.67954E-10 -8.69729E-12  2.24403E-11  1.24343E-14  1.77165E-14
  4.000E+00  1.21797E-03 -2.95802E-10  7.25787E-10 -8.87847E-12  2.17535E-11  2.49383E-14  7.70914E-15
  4.100E+00  1.27961E-03 -2.93806E-10  6.86646E-10 -9.03941E-12  2.10963E-11  2.66305E-14  2.93137E-15
  4.200E+00  1.34276E-03 -2.91322E-10  6.50260E-10 -9.18201E-12  2.04672E-11  1.84261E-14  1.07796E-14
  4.300E+00  1.40743E-03 -2.88438E-10  6.16386E-10 -9.30801E-12  1.98643E-11  4.36410E-15  1.35346E-14
  4.400E+00  1.47362E-03 -2.85227E-10  5.84809E-10 -9.41895E-12  1.92864E-11  9.51692E-15  1.08939E-14
  4.500E+00  1.54133E-03 -2.81753E-10  5.55334E-10 -9.51622E-12  1.87319E-11  1.80842E-14  4.62364E-15
  4.600E+00  1.61056E-03 -2.78069E-10  5.27786E-10 -9.60106E-12  1.81996E-11  1.90092E-14  2.36777E-15
  4.700E+00  1.68131E-03 -2.74221E-10  5.02006E-10 -9.67460E-12  1.76882E-11  1.28206E-14  7.04853E-15
  4.800E+00  1.75357E-03 -2.70246E-10  4.77854E-10 -9.73785E-12  1.71967E-11  2.90414E-15  8.67936E-15
  4.900E+00  1.82735E-03 -2.66179E-10  4.55201E-10 -9.79173E-12  1.67240E-11  7.31858E-15  6.84080E-15
  5.000E+00  1.90265E-03 -2.62045E-10  4.33929E-10 -9.83705E-12  1.62691E-11  1.33578E-14  2.66070E-15
  5.100E+00  1.97947E-03 -2.57870E-10  4.13935E-10 -9.87456E-12  1.58310E-11  1.39273E-14  1.95865E-15
  5.200E+00  2.05780E-03 -2.53672E-10  3.95121E-10 -9.90494E-12  1.54089E-11  9.22872E-15  4.90995E-15
  5.300E+00  2.13765E-03 -2.49467E-10  3.77401E-10 -9.92880E-12  1.50020E-11  1.62617E-15  5.74476E-15
  5.400E+00  2.21902E-03 -2.45272E-10  3.60695E-10 -9.94670E-12  1.46096E-11  5.80427E-15  4.46829E-15
