 #  Spin polarization functions (in cm)      MU=(1-cos(TH))/2
 #  Z =  79,   projectile: electron
 #  Kinetic energy = 5.10000E+06 eV
 #
 # TH (deg)      MU            U            S            T      1-U^2-T^2-S^2
 #------------------------------------------------------------------------------
  0.000E+00  0.00000E+00  0.00000E+00  0.00000E+00  1.00000E+00  0.00000E+00
  1.000E-04  7.61557E-13  1.58639E-06  1.38194E-11  1.00000E+00 -2.22045E-16
  1.250E-04  1.18994E-12  1.98299E-06  1.72742E-11  1.00000E+00  0.00000E+00
  1.500E-04  1.71346E-12  2.37958E-06  2.07291E-11  1.00000E+00  3.33067E-16
  1.750E-04  2.33225E-12  2.77618E-06  2.41840E-11  1.00000E+00  2.22045E-16
  2.000E-04  3.04617E-12  3.17278E-06  2.76389E-11  1.00000E+00 -4.44089E-16
  2.250E-04  3.85530E-12  3.56938E-06  3.10938E-11  1.00000E+00  2.22045E-16
  2.500E-04  4.75964E-12  3.96597E-06  3.45488E-11  1.00000E+00  2.22045E-16
  2.750E-04  5.75917E-12  4.36257E-06  3.80038E-11  1.00000E+00 -2.22045E-16
  3.000E-04  6.85391E-12  4.75917E-06  4.14588E-11  1.00000E+00  0.00000E+00
  3.250E-04  8.04379E-12  5.15577E-06  4.49139E-11  1.00000E+00  1.11022E-16
  3.500E-04  9.32893E-12  5.55236E-06  4.83690E-11  1.00000E+00  1.11022E-16
  3.750E-04  1.07092E-11  5.94896E-06  5.18242E-11  1.00000E+00  0.00000E+00
  4.000E-04  1.21847E-11  6.34556E-06  5.52794E-11  1.00000E+00 -2.22045E-16
  4.250E-04  1.37554E-11  6.74216E-06  5.87346E-11  1.00000E+00  3.33067E-16
  4.500E-04  1.54213E-11  7.13875E-06  6.21899E-11  1.00000E+00 -2.22045E-16
  4.750E-04  1.71823E-11  7.53535E-06  6.56453E-11  1.00000E+00 -2.22045E-16
  5.000E-04  1.90386E-11  7.93195E-06  6.91007E-11  1.00000E+00  1.11022E-16
  5.250E-04  2.09900E-11  8.32855E-06  7.25561E-11  1.00000E+00  2.22045E-16
  5.500E-04  2.30367E-11  8.72514E-06  7.60117E-11  1.00000E+00  3.33067E-16
  5.750E-04  2.51785E-11  9.12174E-06  7.94673E-11  1.00000E+00  1.11022E-16
  6.000E-04  2.74156E-11  9.51834E-06  8.29230E-11  1.00000E+00 -2.22045E-16
  6.250E-04  2.97478E-11  9.91494E-06  8.63787E-11  1.00000E+00  0.00000E+00
  6.500E-04  3.21752E-11  1.03115E-05  8.98345E-11  1.00000E+00  3.33067E-16
  6.750E-04  3.46979E-11  1.07081E-05  9.32904E-11  1.00000E+00 -2.22045E-16
  7.000E-04  3.73157E-11  1.11047E-05  9.67464E-11  1.00000E+00  0.00000E+00
  7.250E-04  4.00286E-11  1.15013E-05  1.00202E-10  1.00000E+00  1.11022E-16
  7.500E-04  4.28368E-11  1.18979E-05  1.03659E-10  1.00000E+00 -2.22045E-16
  7.750E-04  4.57402E-11  1.22945E-05  1.07115E-10  1.00000E+00  0.00000E+00
  8.000E-04  4.87388E-11  1.26911E-05  1.10571E-10  1.00000E+00  0.00000E+00
  8.250E-04  5.18325E-11  1.30877E-05  1.14028E-10  1.00000E+00  0.00000E+00
  8.500E-04  5.50215E-11  1.34843E-05  1.17484E-10  1.00000E+00  0.00000E+00
  8.750E-04  5.83057E-11  1.38809E-05  1.20941E-10  1.00000E+00  0.00000E+00
  9.000E-04  6.16850E-11  1.42775E-05  1.24398E-10  1.00000E+00 -2.22045E-16
  9.250E-04  6.51595E-11  1.46741E-05  1.27855E-10  1.00000E+00  3.33067E-16
  9.500E-04  6.87293E-11  1.50707E-05  1.31312E-10  1.00000E+00  4.44089E-16
  9.750E-04  7.23943E-11  1.54673E-05  1.34769E-10  1.00000E+00  1.11022E-16
  1.000E-03  7.61544E-11  1.58639E-05  1.38226E-10  1.00000E+00 -2.22045E-16
  1.250E-03  1.18991E-10  1.98299E-05  1.72805E-10  1.00000E+00  2.22045E-16
  1.500E-03  1.71347E-10  2.37958E-05  2.07400E-10  1.00000E+00  0.00000E+00
  1.750E-03  2.33223E-10  2.77618E-05  2.42013E-10  1.00000E+00  0.00000E+00
  2.000E-03  3.04617E-10  3.17278E-05  2.76647E-10  1.00000E+00  1.11022E-16
  2.250E-03  3.85531E-10  3.56938E-05  3.11305E-10  1.00000E+00  2.22045E-16
  2.500E-03  4.75965E-10  3.96597E-05  3.45991E-10  1.00000E+00  1.11022E-16
  2.750E-03  5.75917E-10  4.36257E-05  3.80707E-10  1.00000E+00 -2.22045E-16
  3.000E-03  6.85389E-10  4.75917E-05  4.15456E-10  1.00000E+00  1.11022E-16
  3.250E-03  8.04380E-10  5.15577E-05  4.50241E-10  1.00000E+00  1.11022E-16
  3.500E-03  9.32891E-10  5.55236E-05  4.85065E-10  1.00000E+00  1.11022E-16
  3.750E-03  1.07092E-09  5.94896E-05  5.19930E-10  1.00000E+00 -2.22045E-16
  4.000E-03  1.21847E-09  6.34556E-05  5.54841E-10  1.00000E+00 -2.22045E-16
  4.250E-03  1.37554E-09  6.74216E-05  5.89798E-10  1.00000E+00  2.22045E-16
  4.500E-03  1.54213E-09  7.13875E-05  6.24806E-10  1.00000E+00 -2.22045E-16
  4.750E-03  1.71823E-09  7.53535E-05  6.59866E-10  1.00000E+00  2.22045E-16
  5.000E-03  1.90386E-09  7.93195E-05  6.94981E-10  1.00000E+00  2.22045E-16
  5.250E-03  2.09900E-09  8.32855E-05  7.30155E-10  1.00000E+00  1.11022E-16
  5.500E-03  2.30367E-09  8.72515E-05  7.65390E-10  1.00000E+00  1.11022E-16
  5.750E-03  2.51785E-09  9.12174E-05  8.00687E-10  1.00000E+00  3.33067E-16
  6.000E-03  2.74156E-09  9.51834E-05  8.36051E-10  1.00000E+00  0.00000E+00
  6.250E-03  2.97478E-09  9.91494E-05  8.71483E-10  1.00000E+00  2.22045E-16
  6.500E-03  3.21752E-09  1.03115E-04  9.06985E-10  1.00000E+00  0.00000E+00
  6.750E-03  3.46978E-09  1.07081E-04  9.42561E-10  1.00000E+00 -4.44089E-16
  7.000E-03  3.73156E-09  1.11047E-04  9.78212E-10  1.00000E+00  0.00000E+00
  7.250E-03  4.00286E-09  1.15013E-04  1.01394E-09  1.00000E+00 -2.22045E-16
  7.500E-03  4.28368E-09  1.18979E-04  1.04975E-09  1.00000E+00  4.44089E-16
  7.750E-03  4.57402E-09  1.22945E-04  1.08564E-09  1.00000E+00 -2.22045E-16
  8.000E-03  4.87388E-09  1.26911E-04  1.12162E-09  1.00000E+00 -2.22045E-16
  8.250E-03  5.18326E-09  1.30877E-04  1.15768E-09  1.00000E+00  2.22045E-16
  8.500E-03  5.50215E-09  1.34843E-04  1.19383E-09  1.00000E+00 -2.22045E-16
  8.750E-03  5.83057E-09  1.38809E-04  1.23008E-09  1.00000E+00 -2.22045E-16
  9.000E-03  6.16850E-09  1.42775E-04  1.26642E-09  1.00000E+00 -4.44089E-16
  9.250E-03  6.51596E-09  1.46741E-04  1.30285E-09  1.00000E+00 -2.22045E-16
  9.500E-03  6.87293E-09  1.50707E-04  1.33938E-09  1.00000E+00  2.22045E-16
  9.750E-03  7.23942E-09  1.54673E-04  1.37601E-09  1.00000E+00  2.22045E-16
  1.000E-02  7.61544E-09  1.58639E-04  1.41274E-09  1.00000E+00 -2.22045E-16
  1.250E-02  1.18991E-08  1.98299E-04  1.78612E-09  1.00000E+00  2.22045E-16
  1.500E-02  1.71347E-08  2.37959E-04  2.17195E-09  1.00000E+00 -2.22045E-16
  1.750E-02  2.33223E-08  2.77618E-04  2.57240E-09  1.00000E+00  5.55112E-16
  2.000E-02  3.04617E-08  3.17278E-04  2.98988E-09  1.00000E+00  2.22045E-16
  2.250E-02  3.85531E-08  3.56938E-04  3.42697E-09  1.00000E+00 -2.22045E-16
  2.500E-02  4.75965E-08  3.96598E-04  3.88611E-09  1.00000E+00  2.22045E-16
  2.750E-02  5.75917E-08  4.36258E-04  4.36927E-09  1.00000E+00  0.00000E+00
  3.000E-02  6.85389E-08  4.75918E-04  4.87769E-09  1.00000E+00 -2.22045E-16
  3.250E-02  8.04380E-08  5.15578E-04  5.41186E-09  1.00000E+00  1.11022E-16
  3.500E-02  9.32891E-08  5.55237E-04  5.97186E-09  1.00000E+00  0.00000E+00
  3.750E-02  1.07092E-07  5.94897E-04  6.55787E-09  1.00000E+00  2.22045E-16
  4.000E-02  1.21847E-07  6.34557E-04  7.17061E-09  1.00000E+00  3.33067E-16
  4.250E-02  1.37554E-07  6.74217E-04  7.81161E-09  1.00000E+00 -2.22045E-16
  4.500E-02  1.54213E-07  7.13878E-04  8.48289E-09  1.00000E+00  0.00000E+00
  4.750E-02  1.71823E-07  7.53538E-04  9.18641E-09  1.00000E+00  3.33067E-16
  5.000E-02  1.90386E-07  7.93198E-04  9.92337E-09  1.00000E+00 -2.22045E-16
  5.250E-02  2.09900E-07  8.32858E-04  1.06938E-08  1.00000E+00  2.22045E-16
  5.500E-02  2.30367E-07  8.72518E-04  1.14969E-08  1.00000E+00  0.00000E+00
  5.750E-02  2.51785E-07  9.12178E-04  1.23315E-08  1.00000E+00  0.00000E+00
  6.000E-02  2.74156E-07  9.51839E-04  1.31971E-08  1.00000E+00  1.11022E-16
  6.250E-02  2.97478E-07  9.91499E-04  1.40945E-08  1.00000E+00  2.22045E-16
  6.500E-02  3.21752E-07  1.03116E-03  1.50258E-08  9.99999E-01  1.11022E-16
  6.750E-02  3.46978E-07  1.07082E-03  1.59934E-08  9.99999E-01 -2.22045E-16
  7.000E-02  3.73156E-07  1.11048E-03  1.69996E-08  9.99999E-01 -2.22045E-16
  7.250E-02  4.00286E-07  1.15014E-03  1.80446E-08  9.99999E-01  0.00000E+00
  7.500E-02  4.28368E-07  1.18980E-03  1.91273E-08  9.99999E-01  2.22045E-16
  7.750E-02  4.57402E-07  1.22946E-03  2.02451E-08  9.99999E-01  2.22045E-16
  8.000E-02  4.87388E-07  1.26912E-03  2.13962E-08  9.99999E-01  4.44089E-16
  8.250E-02  5.18325E-07  1.30878E-03  2.25798E-08  9.99999E-01  0.00000E+00
  8.500E-02  5.50215E-07  1.34844E-03  2.37977E-08  9.99999E-01  0.00000E+00
  8.750E-02  5.83057E-07  1.38810E-03  2.50529E-08  9.99999E-01  0.00000E+00
  9.000E-02  6.16850E-07  1.42776E-03  2.63485E-08  9.99999E-01  0.00000E+00
  9.250E-02  6.51596E-07  1.46743E-03  2.76862E-08  9.99999E-01 -2.22045E-16
  9.500E-02  6.87293E-07  1.50709E-03  2.90649E-08  9.99999E-01  1.11022E-16
  9.750E-02  7.23942E-07  1.54675E-03  3.04815E-08  9.99999E-01  0.00000E+00
  1.000E-01  7.61543E-07  1.58641E-03  3.19326E-08  9.99999E-01 -2.22045E-16
  1.250E-01  1.18991E-06  1.98302E-03  4.84710E-08  9.99998E-01  1.11022E-16
  1.500E-01  1.71347E-06  2.37964E-03  6.86370E-08  9.99997E-01  2.22045E-16
  1.750E-01  2.33223E-06  2.77626E-03  9.22209E-08  9.99996E-01 -2.22045E-16
  2.000E-01  3.04617E-06  3.17289E-03  1.19072E-07  9.99995E-01 -4.44089E-16
  2.250E-01  3.85531E-06  3.56953E-03  1.49107E-07  9.99994E-01  0.00000E+00
  2.500E-01  4.75964E-06  3.96617E-03  1.82295E-07  9.99992E-01 -2.22045E-16
  2.750E-01  5.75916E-06  4.36282E-03  2.18680E-07  9.99990E-01  0.00000E+00
  3.000E-01  6.85388E-06  4.75948E-03  2.58283E-07  9.99989E-01 -2.22045E-16
  3.250E-01  8.04378E-06  5.15614E-03  3.00960E-07  9.99987E-01  0.00000E+00
  3.500E-01  9.32888E-06  5.55282E-03  3.46428E-07  9.99985E-01  2.22045E-16
  3.750E-01  1.07092E-05  5.94949E-03  3.94541E-07  9.99982E-01  0.00000E+00
  4.000E-01  1.21846E-05  6.34618E-03  4.45210E-07  9.99980E-01  0.00000E+00
  4.250E-01  1.37553E-05  6.74288E-03  4.98183E-07  9.99977E-01  0.00000E+00
  4.500E-01  1.54212E-05  7.13958E-03  5.53056E-07  9.99975E-01  1.11022E-16
  4.750E-01  1.71822E-05  7.53630E-03  6.09549E-07  9.99972E-01  0.00000E+00
  5.000E-01  1.90385E-05  7.93302E-03  6.68055E-07  9.99969E-01  2.22045E-16
  5.250E-01  2.09899E-05  8.32975E-03  7.28981E-07  9.99965E-01  0.00000E+00
  5.500E-01  2.30365E-05  8.72648E-03  7.92240E-07  9.99962E-01  2.22045E-16
  5.750E-01  2.51783E-05  9.12323E-03  8.57573E-07  9.99958E-01  1.11022E-16
  6.000E-01  2.74153E-05  9.51998E-03  9.25296E-07  9.99955E-01  1.11022E-16
  6.250E-01  2.97475E-05  9.91673E-03  9.95907E-07  9.99951E-01 -2.22045E-16
  6.500E-01  3.21749E-05  1.03135E-02  1.06999E-06  9.99947E-01  2.22045E-16
  6.750E-01  3.46974E-05  1.07103E-02  1.14705E-06  9.99943E-01  1.11022E-16
  7.000E-01  3.73152E-05  1.11070E-02  1.22658E-06  9.99938E-01  1.11022E-16
  7.250E-01  4.00281E-05  1.15038E-02  1.30900E-06  9.99934E-01  0.00000E+00
  7.500E-01  4.28362E-05  1.19006E-02  1.39523E-06  9.99929E-01  3.33067E-16
  7.750E-01  4.57395E-05  1.22974E-02  1.48480E-06  9.99924E-01 -4.44089E-16
  8.000E-01  4.87380E-05  1.26942E-02  1.57675E-06  9.99919E-01 -2.22045E-16
  8.250E-01  5.18317E-05  1.30910E-02  1.67124E-06  9.99914E-01 -2.22045E-16
  8.500E-01  5.50205E-05  1.34878E-02  1.76888E-06  9.99909E-01 -2.22045E-16
  8.750E-01  5.83045E-05  1.38847E-02  1.86956E-06  9.99904E-01  0.00000E+00
  9.000E-01  6.16838E-05  1.42815E-02  1.97272E-06  9.99898E-01  1.11022E-16
  9.250E-01  6.51582E-05  1.46783E-02  2.07790E-06  9.99892E-01  1.11022E-16
  9.500E-01  6.87277E-05  1.50752E-02  2.18528E-06  9.99886E-01 -4.44089E-16
  9.750E-01  7.23925E-05  1.54720E-02  2.29516E-06  9.99880E-01 -2.22045E-16
  1.000E+00  7.61524E-05  1.58689E-02  2.40688E-06  9.99874E-01  1.11022E-16
  1.100E+00  9.21439E-05  1.74563E-02  2.87326E-06  9.99848E-01  0.00000E+00
  1.200E+00  1.09658E-04  1.90439E-02  3.37242E-06  9.99819E-01 -4.44089E-16
  1.300E+00  1.28695E-04  2.06316E-02  3.90750E-06  9.99787E-01  3.33067E-16
  1.400E+00  1.49255E-04  2.22194E-02  4.47967E-06  9.99753E-01  2.22045E-16
  1.500E+00  1.71338E-04  2.38073E-02  5.09574E-06  9.99717E-01  1.11022E-16
  1.600E+00  1.94942E-04  2.53952E-02  5.76109E-06  9.99677E-01 -2.22045E-16
  1.700E+00  2.20070E-04  2.69832E-02  6.47711E-06  9.99636E-01  2.22045E-16
  1.800E+00  2.46720E-04  2.85714E-02  7.24584E-06  9.99592E-01  0.00000E+00
  1.900E+00  2.74892E-04  3.01595E-02  8.06987E-06  9.99545E-01  1.11022E-16
  2.000E+00  3.04586E-04  3.17478E-02  8.94805E-06  9.99496E-01 -2.22045E-16
  2.100E+00  3.35803E-04  3.33361E-02  9.88156E-06  9.99444E-01  2.22045E-16
  2.200E+00  3.68542E-04  3.49245E-02  1.08706E-05  9.99390E-01  0.00000E+00
  2.300E+00  4.02802E-04  3.65129E-02  1.19135E-05  9.99333E-01  1.11022E-16
  2.400E+00  4.38585E-04  3.81014E-02  1.30106E-05  9.99274E-01  2.22045E-16
  2.500E+00  4.75889E-04  3.96900E-02  1.41627E-05  9.99212E-01 -4.44089E-16
  2.600E+00  5.14715E-04  4.12786E-02  1.53688E-05  9.99148E-01 -2.22045E-16
  2.700E+00  5.55063E-04  4.28672E-02  1.66301E-05  9.99081E-01  0.00000E+00
  2.800E+00  5.96931E-04  4.44559E-02  1.79466E-05  9.99011E-01  2.22045E-16
  2.900E+00  6.40321E-04  4.60447E-02  1.93179E-05  9.98939E-01 -2.22045E-16
  3.000E+00  6.85233E-04  4.76334E-02  2.07457E-05  9.98865E-01  0.00000E+00
  3.100E+00  7.31665E-04  4.92223E-02  2.22303E-05  9.98788E-01 -2.22045E-16
  3.200E+00  7.79618E-04  5.08111E-02  2.37721E-05  9.98708E-01  0.00000E+00
  3.300E+00  8.29092E-04  5.24000E-02  2.53722E-05  9.98626E-01  1.11022E-16
  3.400E+00  8.80086E-04  5.39889E-02  2.70309E-05  9.98542E-01  0.00000E+00
  3.500E+00  9.32601E-04  5.55779E-02  2.87502E-05  9.98454E-01  0.00000E+00
  3.600E+00  9.86636E-04  5.71668E-02  3.05294E-05  9.98365E-01 -4.44089E-16
  3.700E+00  1.04219E-03  5.87558E-02  3.23683E-05  9.98272E-01  0.00000E+00
  3.800E+00  1.09927E-03  6.03448E-02  3.42711E-05  9.98178E-01  1.11022E-16
  3.900E+00  1.15786E-03  6.19338E-02  3.62347E-05  9.98080E-01 -2.22045E-16
  4.000E+00  1.21797E-03  6.35229E-02  3.82581E-05  9.97980E-01  0.00000E+00
  4.100E+00  1.27961E-03  6.51119E-02  4.03482E-05  9.97878E-01 -2.22045E-16
  4.200E+00  1.34276E-03  6.67009E-02  4.24990E-05  9.97773E-01  0.00000E+00
  4.300E+00  1.40743E-03  6.82900E-02  4.47105E-05  9.97666E-01 -4.44089E-16
  4.400E+00  1.47362E-03  6.98790E-02  4.69914E-05  9.97555E-01 -2.22045E-16
  4.500E+00  1.54133E-03  7.14681E-02  4.93318E-05  9.97443E-01  2.22045E-16
  4.600E+00  1.61056E-03  7.30571E-02  5.17328E-05  9.97328E-01  1.11022E-16
  4.700E+00  1.68131E-03  7.46462E-02  5.42051E-05  9.97210E-01  2.22045E-16
  4.800E+00  1.75357E-03  7.62352E-02  5.67356E-05  9.97090E-01  1.11022E-16
  4.900E+00  1.82735E-03  7.78242E-02  5.93267E-05  9.96967E-01  0.00000E+00
  5.000E+00  1.90265E-03  7.94132E-02  6.19906E-05  9.96842E-01  1.11022E-16
  5.100E+00  1.97947E-03  8.10022E-02  6.47097E-05  9.96714E-01  0.00000E+00
  5.200E+00  2.05780E-03  8.25911E-02  6.74884E-05  9.96584E-01  0.00000E+00
  5.300E+00  2.13765E-03  8.41801E-02  7.03414E-05  9.96451E-01  2.22045E-16
  5.400E+00  2.21902E-03  8.57690E-02  7.32471E-05  9.96315E-01 -2.22045E-16
  5.500E+00  2.30190E-03  8.73578E-02  7.62118E-05  9.96177E-01  3.33067E-16
  5.600E+00  2.38630E-03  8.89466E-02  7.92523E-05  9.96036E-01  1.11022E-16
  5.700E+00  2.47222E-03  9.05354E-02  8.23404E-05  9.95893E-01 -2.22045E-16
  5.800E+00  2.55965E-03  9.21242E-02  8.54855E-05  9.95748E-01  0.00000E+00
  5.900E+00  2.64859E-03  9.37129E-02  8.87089E-05  9.95599E-01 -2.22045E-16
  6.000E+00  2.73905E-03  9.53016E-02  9.19756E-05  9.95448E-01  1.11022E-16
  6.100E+00  2.83103E-03  9.68902E-02  9.52987E-05  9.95295E-01  1.11022E-16
  6.200E+00  2.92452E-03  9.84787E-02  9.87031E-05  9.95139E-01 -4.44089E-16
  6.300E+00  3.01952E-03  1.00067E-01  1.02141E-04  9.94981E-01  0.00000E+00
  6.400E+00  3.11604E-03  1.01656E-01  1.05633E-04  9.94820E-01  0.00000E+00
  6.500E+00  3.21407E-03  1.03244E-01  1.09213E-04  9.94656E-01  3.33067E-16
  6.600E+00  3.31362E-03  1.04832E-01  1.12813E-04  9.94490E-01 -2.22045E-16
  6.700E+00  3.41468E-03  1.06421E-01  1.16477E-04  9.94321E-01  3.33067E-16
  6.800E+00  3.51725E-03  1.08009E-01  1.20229E-04  9.94150E-01 -2.22045E-16
  6.900E+00  3.62133E-03  1.09597E-01  1.23977E-04  9.93976E-01  0.00000E+00
  7.000E+00  3.72692E-03  1.11185E-01  1.27813E-04  9.93800E-01 -2.22045E-16
  7.100E+00  3.83403E-03  1.12773E-01  1.31708E-04  9.93621E-01 -2.22045E-16
  7.200E+00  3.94265E-03  1.14361E-01  1.35614E-04  9.93439E-01  2.22045E-16
  7.300E+00  4.05278E-03  1.15949E-01  1.39608E-04  9.93255E-01  0.00000E+00
  7.400E+00  4.16442E-03  1.17536E-01  1.43656E-04  9.93069E-01  0.00000E+00
  7.500E+00  4.27757E-03  1.19124E-01  1.47701E-04  9.92879E-01  0.00000E+00
  7.600E+00  4.39223E-03  1.20711E-01  1.51844E-04  9.92688E-01 -4.44089E-16
  7.700E+00  4.50840E-03  1.22299E-01  1.56015E-04  9.92493E-01 -2.22045E-16
  7.800E+00  4.62608E-03  1.23886E-01  1.60207E-04  9.92296E-01 -2.22045E-16
  7.900E+00  4.74527E-03  1.25473E-01  1.64490E-04  9.92097E-01  2.22045E-16
  8.000E+00  4.86597E-03  1.27060E-01  1.68792E-04  9.91895E-01  0.00000E+00
  8.100E+00  4.98817E-03  1.28647E-01  1.73121E-04  9.91690E-01  2.22045E-16
  8.200E+00  5.11188E-03  1.30234E-01  1.77518E-04  9.91483E-01  1.11022E-16
  8.300E+00  5.23711E-03  1.31821E-01  1.81936E-04  9.91274E-01 -2.22045E-16
  8.400E+00  5.36383E-03  1.33407E-01  1.86388E-04  9.91061E-01  3.33067E-16
  8.500E+00  5.49207E-03  1.34994E-01  1.90901E-04  9.90846E-01 -2.22045E-16
  8.600E+00  5.62181E-03  1.36580E-01  1.95436E-04  9.90629E-01  0.00000E+00
  8.700E+00  5.75306E-03  1.38167E-01  1.99996E-04  9.90409E-01 -2.22045E-16
  8.800E+00  5.88581E-03  1.39753E-01  2.04603E-04  9.90186E-01 -2.22045E-16
  8.900E+00  6.02007E-03  1.41339E-01  2.09234E-04  9.89961E-01  3.33067E-16
  9.000E+00  6.15583E-03  1.42924E-01  2.13896E-04  9.89734E-01 -4.44089E-16
  9.100E+00  6.29310E-03  1.44510E-01  2.18606E-04  9.89503E-01  1.11022E-16
  9.200E+00  6.43187E-03  1.46095E-01  2.23337E-04  9.89270E-01  1.11022E-16
  9.300E+00  6.57214E-03  1.47681E-01  2.28087E-04  9.89035E-01 -2.22045E-16
  9.400E+00  6.71392E-03  1.49266E-01  2.32871E-04  9.88797E-01  2.22045E-16
  9.500E+00  6.85720E-03  1.50851E-01  2.37676E-04  9.88556E-01  3.33067E-16
  9.600E+00  7.00198E-03  1.52436E-01  2.42504E-04  9.88313E-01  0.00000E+00
  9.700E+00  7.14827E-03  1.54021E-01  2.47367E-04  9.88068E-01 -2.22045E-16
  9.800E+00  7.29605E-03  1.55605E-01  2.52246E-04  9.87819E-01  0.00000E+00
  9.900E+00  7.44534E-03  1.57189E-01  2.57135E-04  9.87568E-01 -2.22045E-16
  1.000E+01  7.59612E-03  1.58774E-01  2.62047E-04  9.87315E-01 -4.44089E-16
  1.025E+01  7.97965E-03  1.62733E-01  2.74416E-04  9.86670E-01  1.11022E-16
  1.050E+01  8.37255E-03  1.66692E-01  2.86885E-04  9.86009E-01  2.22045E-16
  1.075E+01  8.77480E-03  1.70649E-01  2.99416E-04  9.85332E-01 -2.22045E-16
  1.100E+01  9.18641E-03  1.74604E-01  3.12006E-04  9.84639E-01  2.22045E-16
  1.125E+01  9.60736E-03  1.78559E-01  3.24600E-04  9.83929E-01  0.00000E+00
  1.150E+01  1.00376E-02  1.82512E-01  3.37234E-04  9.83204E-01  0.00000E+00
  1.175E+01  1.04773E-02  1.86463E-01  3.49845E-04  9.82462E-01 -2.22045E-16
  1.200E+01  1.09262E-02  1.90413E-01  3.62421E-04  9.81704E-01 -2.22045E-16
  1.225E+01  1.13844E-02  1.94361E-01  3.74939E-04  9.80930E-01 -2.22045E-16
  1.250E+01  1.18520E-02  1.98308E-01  3.87359E-04  9.80140E-01  0.00000E+00
  1.275E+01  1.23288E-02  2.02252E-01  3.99721E-04  9.79333E-01 -2.22045E-16
  1.300E+01  1.28150E-02  2.06195E-01  4.11935E-04  9.78511E-01  2.22045E-16
  1.325E+01  1.33104E-02  2.10136E-01  4.24022E-04  9.77672E-01  0.00000E+00
  1.350E+01  1.38150E-02  2.14075E-01  4.35929E-04  9.76817E-01  0.00000E+00
  1.375E+01  1.43290E-02  2.18012E-01  4.47652E-04  9.75946E-01  0.00000E+00
  1.400E+01  1.48521E-02  2.21947E-01  4.59206E-04  9.75059E-01  0.00000E+00
  1.425E+01  1.53845E-02  2.25880E-01  4.70485E-04  9.74155E-01  0.00000E+00
  1.450E+01  1.59262E-02  2.29810E-01  4.81535E-04  9.73235E-01 -2.22045E-16
  1.475E+01  1.64770E-02  2.33738E-01  4.92272E-04  9.72300E-01 -2.22045E-16
