 #  Spin polarization functions (in cm)      MU=(1-cos(TH))/2
 #  Z =  79,   projectile: electron
 #  Kinetic energy = 8.05000E+06 eV
 #
 # TH (deg)      MU            U            S            T      1-U^2-T^2-S^2
 #------------------------------------------------------------------------------
  0.000E+00  0.00000E+00  0.00000E+00  0.00000E+00  1.00000E+00  0.00000E+00
  1.000E-04  7.61557E-13  1.64114E-06  7.74058E-12  1.00000E+00  0.00000E+00
  1.250E-04  1.18994E-12  2.05143E-06  9.67548E-12  1.00000E+00 -2.22045E-16
  1.500E-04  1.71346E-12  2.46172E-06  1.16102E-11  1.00000E+00 -2.22045E-16
  1.750E-04  2.33225E-12  2.87200E-06  1.35447E-11  1.00000E+00 -2.22045E-16
  2.000E-04  3.04617E-12  3.28229E-06  1.54790E-11  1.00000E+00  0.00000E+00
  2.250E-04  3.85530E-12  3.69258E-06  1.74131E-11  1.00000E+00 -2.22045E-16
  2.500E-04  4.75964E-12  4.10286E-06  1.93468E-11  1.00000E+00  0.00000E+00
  2.750E-04  5.75917E-12  4.51315E-06  2.12802E-11  1.00000E+00  1.11022E-16
  3.000E-04  6.85391E-12  4.92343E-06  2.32133E-11  1.00000E+00  0.00000E+00
  3.250E-04  8.04379E-12  5.33372E-06  2.51459E-11  1.00000E+00  2.22045E-16
  3.500E-04  9.32893E-12  5.74401E-06  2.70781E-11  1.00000E+00  0.00000E+00
  3.750E-04  1.07092E-11  6.15429E-06  2.90099E-11  1.00000E+00 -2.22045E-16
  4.000E-04  1.21847E-11  6.56458E-06  3.09411E-11  1.00000E+00 -2.22045E-16
  4.250E-04  1.37554E-11  6.97487E-06  3.28718E-11  1.00000E+00 -2.22045E-16
  4.500E-04  1.54213E-11  7.38515E-06  3.48020E-11  1.00000E+00  0.00000E+00
  4.750E-04  1.71823E-11  7.79544E-06  3.67316E-11  1.00000E+00  3.33067E-16
  5.000E-04  1.90386E-11  8.20572E-06  3.86605E-11  1.00000E+00  2.22045E-16
  5.250E-04  2.09900E-11  8.61601E-06  4.05888E-11  1.00000E+00  3.33067E-16
  5.500E-04  2.30367E-11  9.02630E-06  4.25164E-11  1.00000E+00  0.00000E+00
  5.750E-04  2.51785E-11  9.43658E-06  4.44433E-11  1.00000E+00  1.11022E-16
  6.000E-04  2.74156E-11  9.84687E-06  4.63694E-11  1.00000E+00  2.22045E-16
  6.250E-04  2.97478E-11  1.02572E-05  4.82947E-11  1.00000E+00  1.11022E-16
  6.500E-04  3.21752E-11  1.06674E-05  5.02192E-11  1.00000E+00 -2.22045E-16
  6.750E-04  3.46979E-11  1.10777E-05  5.21429E-11  1.00000E+00  0.00000E+00
  7.000E-04  3.73157E-11  1.14880E-05  5.40656E-11  1.00000E+00  1.11022E-16
  7.250E-04  4.00286E-11  1.18983E-05  5.59875E-11  1.00000E+00 -2.22045E-16
  7.500E-04  4.28368E-11  1.23086E-05  5.79084E-11  1.00000E+00  1.11022E-16
  7.750E-04  4.57402E-11  1.27189E-05  5.98283E-11  1.00000E+00  2.22045E-16
  8.000E-04  4.87388E-11  1.31292E-05  6.17472E-11  1.00000E+00  1.11022E-16
  8.250E-04  5.18325E-11  1.35394E-05  6.36650E-11  1.00000E+00 -2.22045E-16
  8.500E-04  5.50215E-11  1.39497E-05  6.55818E-11  1.00000E+00  0.00000E+00
  8.750E-04  5.83057E-11  1.43600E-05  6.74975E-11  1.00000E+00  2.22045E-16
  9.000E-04  6.16850E-11  1.47703E-05  6.94120E-11  1.00000E+00  0.00000E+00
  9.250E-04  6.51595E-11  1.51806E-05  7.13254E-11  1.00000E+00  2.22045E-16
  9.500E-04  6.87293E-11  1.55909E-05  7.32376E-11  1.00000E+00  1.11022E-16
  9.750E-04  7.23943E-11  1.60012E-05  7.51485E-11  1.00000E+00 -2.22045E-16
  1.000E-03  7.61544E-11  1.64115E-05  7.70582E-11  1.00000E+00  0.00000E+00
  1.250E-03  1.18991E-10  2.05143E-05  9.60787E-11  1.00000E+00  2.22045E-16
  1.500E-03  1.71347E-10  2.46172E-05  1.14940E-10  1.00000E+00  1.11022E-16
  1.750E-03  2.33223E-10  2.87200E-05  1.33613E-10  1.00000E+00  1.11022E-16
  2.000E-03  3.04617E-10  3.28229E-05  1.52072E-10  1.00000E+00 -2.22045E-16
  2.250E-03  3.85531E-10  3.69258E-05  1.70291E-10  1.00000E+00  2.22045E-16
  2.500E-03  4.75965E-10  4.10287E-05  1.88249E-10  1.00000E+00  3.33067E-16
  2.750E-03  5.75917E-10  4.51315E-05  2.05925E-10  1.00000E+00 -2.22045E-16
  3.000E-03  6.85389E-10  4.92344E-05  2.23301E-10  1.00000E+00  1.11022E-16
  3.250E-03  8.04380E-10  5.33373E-05  2.40364E-10  1.00000E+00  2.22045E-16
  3.500E-03  9.32891E-10  5.74402E-05  2.57101E-10  1.00000E+00  1.11022E-16
  3.750E-03  1.07092E-09  6.15431E-05  2.73506E-10  1.00000E+00  1.11022E-16
  4.000E-03  1.21847E-09  6.56459E-05  2.89571E-10  1.00000E+00  3.33067E-16
  4.250E-03  1.37554E-09  6.97488E-05  3.05296E-10  1.00000E+00  0.00000E+00
  4.500E-03  1.54213E-09  7.38517E-05  3.20682E-10  1.00000E+00  0.00000E+00
  4.750E-03  1.71823E-09  7.79546E-05  3.35734E-10  1.00000E+00  0.00000E+00
  5.000E-03  1.90386E-09  8.20575E-05  3.50460E-10  1.00000E+00 -2.22045E-16
  5.250E-03  2.09900E-09  8.61604E-05  3.64872E-10  1.00000E+00  0.00000E+00
  5.500E-03  2.30367E-09  9.02633E-05  3.78983E-10  1.00000E+00  2.22045E-16
  5.750E-03  2.51785E-09  9.43662E-05  3.92812E-10  1.00000E+00  0.00000E+00
  6.000E-03  2.74156E-09  9.84691E-05  4.06379E-10  1.00000E+00  0.00000E+00
  6.250E-03  2.97478E-09  1.02572E-04  4.19709E-10  1.00000E+00 -2.22045E-16
  6.500E-03  3.21752E-09  1.06675E-04  4.32825E-10  1.00000E+00 -2.22045E-16
  6.750E-03  3.46978E-09  1.10778E-04  4.45758E-10  1.00000E+00  2.22045E-16
  7.000E-03  3.73156E-09  1.14881E-04  4.58538E-10  1.00000E+00 -2.22045E-16
  7.250E-03  4.00286E-09  1.18984E-04  4.71197E-10  1.00000E+00 -2.22045E-16
  7.500E-03  4.28368E-09  1.23087E-04  4.83769E-10  1.00000E+00  1.11022E-16
  7.750E-03  4.57402E-09  1.27189E-04  4.96290E-10  1.00000E+00 -2.22045E-16
  8.000E-03  4.87388E-09  1.31292E-04  5.08796E-10  1.00000E+00  1.11022E-16
  8.250E-03  5.18326E-09  1.35395E-04  5.21324E-10  1.00000E+00 -2.22045E-16
  8.500E-03  5.50215E-09  1.39498E-04  5.33912E-10  1.00000E+00  1.11022E-16
  8.750E-03  5.83057E-09  1.43601E-04  5.46598E-10  1.00000E+00 -2.22045E-16
  9.000E-03  6.16850E-09  1.47704E-04  5.59419E-10  1.00000E+00  0.00000E+00
  9.250E-03  6.51596E-09  1.51807E-04  5.72412E-10  1.00000E+00 -2.22045E-16
  9.500E-03  6.87293E-09  1.55910E-04  5.85612E-10  1.00000E+00  2.22045E-16
  9.750E-03  7.23942E-09  1.60013E-04  5.99056E-10  1.00000E+00  1.11022E-16
  1.000E-02  7.61544E-09  1.64116E-04  6.12775E-10  1.00000E+00  0.00000E+00
  1.250E-02  1.18991E-08  2.05145E-04  7.70855E-10  1.00000E+00  2.22045E-16
  1.500E-02  1.71347E-08  2.46174E-04  9.73427E-10  1.00000E+00  0.00000E+00
  1.750E-02  2.33223E-08  2.87202E-04  1.20626E-09  1.00000E+00 -2.22045E-16
  2.000E-02  3.04617E-08  3.28231E-04  1.44037E-09  1.00000E+00 -2.22045E-16
  2.250E-02  3.85531E-08  3.69260E-04  1.66121E-09  1.00000E+00 -2.22045E-16
  2.500E-02  4.75965E-08  4.10289E-04  1.88482E-09  1.00000E+00  1.11022E-16
  2.750E-02  5.75917E-08  4.51319E-04  2.14360E-09  1.00000E+00  0.00000E+00
  3.000E-02  6.85389E-08  4.92347E-04  2.45420E-09  1.00000E+00  3.33067E-16
  3.250E-02  8.04380E-08  5.33376E-04  2.79941E-09  1.00000E+00  1.11022E-16
  3.500E-02  9.32891E-08  5.74405E-04  3.14495E-09  1.00000E+00  2.22045E-16
  3.750E-02  1.07092E-07  6.15435E-04  3.47624E-09  1.00000E+00 -2.22045E-16
  4.000E-02  1.21847E-07  6.56464E-04  3.81692E-09  1.00000E+00  4.44089E-16
  4.250E-02  1.37554E-07  6.97493E-04  4.20687E-09  1.00000E+00  0.00000E+00
  4.500E-02  1.54213E-07  7.38522E-04  4.65994E-09  1.00000E+00  1.11022E-16
  4.750E-02  1.71823E-07  7.79551E-04  5.14624E-09  1.00000E+00 -2.22045E-16
  5.000E-02  1.90386E-07  8.20580E-04  5.62169E-09  1.00000E+00 -2.22045E-16
  5.250E-02  2.09900E-07  8.61610E-04  6.07657E-09  1.00000E+00  2.22045E-16
  5.500E-02  2.30367E-07  9.02639E-04  6.55054E-09  1.00000E+00  4.44089E-16
  5.750E-02  2.51785E-07  9.43669E-04  7.09361E-09  1.00000E+00  2.22045E-16
  6.000E-02  2.74156E-07  9.84698E-04  7.71103E-09  1.00000E+00  0.00000E+00
  6.250E-02  2.97478E-07  1.02573E-03  8.35278E-09  9.99999E-01  0.00000E+00
  6.500E-02  3.21752E-07  1.06676E-03  8.96401E-09  9.99999E-01 -2.22045E-16
  6.750E-02  3.46978E-07  1.10779E-03  9.54618E-09  9.99999E-01  2.22045E-16
  7.000E-02  3.73156E-07  1.14882E-03  1.01612E-08  9.99999E-01  3.33067E-16
  7.250E-02  4.00286E-07  1.18985E-03  1.08681E-08  9.99999E-01  0.00000E+00
  7.500E-02  4.28368E-07  1.23087E-03  1.16571E-08  9.99999E-01  2.22045E-16
  7.750E-02  4.57402E-07  1.27190E-03  1.24540E-08  9.99999E-01  0.00000E+00
  8.000E-02  4.87388E-07  1.31293E-03  1.31974E-08  9.99999E-01  3.33067E-16
  8.250E-02  5.18325E-07  1.35396E-03  1.39075E-08  9.99999E-01 -2.22045E-16
  8.500E-02  5.50215E-07  1.39499E-03  1.46700E-08  9.99999E-01 -2.22045E-16
  8.750E-02  5.83057E-07  1.43602E-03  1.55452E-08  9.99999E-01  0.00000E+00
  9.000E-02  6.16850E-07  1.47705E-03  1.64996E-08  9.99999E-01  1.11022E-16
  9.250E-02  6.51596E-07  1.51808E-03  1.74362E-08  9.99999E-01  0.00000E+00
  9.500E-02  6.87293E-07  1.55911E-03  1.82979E-08  9.99999E-01  1.11022E-16
  9.750E-02  7.23942E-07  1.60014E-03  1.91329E-08  9.99999E-01  2.22045E-16
  1.000E-01  7.61543E-07  1.64117E-03  2.00474E-08  9.99999E-01  0.00000E+00
  1.250E-01  1.18991E-06  2.05147E-03  3.08889E-08  9.99998E-01 -4.44089E-16
  1.500E-01  1.71347E-06  2.46178E-03  4.39500E-08  9.99997E-01  3.33067E-16
  1.750E-01  2.33223E-06  2.87209E-03  5.88683E-08  9.99996E-01  2.22045E-16
  2.000E-01  3.04617E-06  3.28240E-03  7.55726E-08  9.99995E-01  2.22045E-16
  2.250E-01  3.85531E-06  3.69272E-03  9.50510E-08  9.99993E-01  0.00000E+00
  2.500E-01  4.75964E-06  4.10305E-03  1.16361E-07  9.99992E-01  0.00000E+00
  2.750E-01  5.75916E-06  4.51338E-03  1.38240E-07  9.99990E-01  2.22045E-16
  3.000E-01  6.85388E-06  4.92371E-03  1.61662E-07  9.99988E-01 -2.22045E-16
  3.250E-01  8.04378E-06  5.33405E-03  1.87679E-07  9.99986E-01 -4.44089E-16
  3.500E-01  9.32888E-06  5.74440E-03  2.14204E-07  9.99984E-01  3.33067E-16
  3.750E-01  1.07092E-05  6.15475E-03  2.41311E-07  9.99981E-01  1.11022E-16
  4.000E-01  1.21846E-05  6.56511E-03  2.70579E-07  9.99978E-01  0.00000E+00
  4.250E-01  1.37553E-05  6.97546E-03  3.03390E-07  9.99976E-01 -2.22045E-16
  4.500E-01  1.54212E-05  7.38583E-03  3.36580E-07  9.99973E-01  2.22045E-16
  4.750E-01  1.71822E-05  7.79620E-03  3.70597E-07  9.99970E-01  3.33067E-16
  5.000E-01  1.90385E-05  8.20657E-03  4.08182E-07  9.99966E-01  0.00000E+00
  5.250E-01  2.09899E-05  8.61695E-03  4.48816E-07  9.99963E-01 -2.22045E-16
  5.500E-01  2.30365E-05  9.02733E-03  4.89173E-07  9.99959E-01  2.22045E-16
  5.750E-01  2.51783E-05  9.43771E-03  5.30704E-07  9.99955E-01 -2.22045E-16
  6.000E-01  2.74153E-05  9.84810E-03  5.75366E-07  9.99952E-01  2.22045E-16
  6.250E-01  2.97475E-05  1.02585E-02  6.22718E-07  9.99947E-01  2.22045E-16
  6.500E-01  3.21749E-05  1.06689E-02  6.68564E-07  9.99943E-01 -2.22045E-16
  6.750E-01  3.46974E-05  1.10793E-02  7.15048E-07  9.99939E-01 -2.22045E-16
  7.000E-01  3.73152E-05  1.14897E-02  7.66040E-07  9.99934E-01 -2.22045E-16
  7.250E-01  4.00281E-05  1.19001E-02  8.18061E-07  9.99929E-01  2.22045E-16
  7.500E-01  4.28362E-05  1.23105E-02  8.67596E-07  9.99924E-01  0.00000E+00
  7.750E-01  4.57395E-05  1.27209E-02  9.19388E-07  9.99919E-01 -2.22045E-16
  8.000E-01  4.87380E-05  1.31314E-02  9.75317E-07  9.99914E-01  0.00000E+00
  8.250E-01  5.18317E-05  1.35418E-02  1.03161E-06  9.99908E-01 -4.44089E-16
  8.500E-01  5.50205E-05  1.39522E-02  1.08547E-06  9.99903E-01 -4.44089E-16
  8.750E-01  5.83045E-05  1.43627E-02  1.14300E-06  9.99897E-01  2.22045E-16
  9.000E-01  6.16838E-05  1.47731E-02  1.20508E-06  9.99891E-01  2.22045E-16
  9.250E-01  6.51582E-05  1.51835E-02  1.26600E-06  9.99885E-01  0.00000E+00
  9.500E-01  6.87277E-05  1.55940E-02  1.32594E-06  9.99878E-01 -2.22045E-16
  9.750E-01  7.23925E-05  1.60044E-02  1.39090E-06  9.99872E-01  3.33067E-16
  1.000E+00  7.61524E-05  1.64149E-02  1.45778E-06  9.99865E-01 -2.22045E-16
  1.100E+00  9.21439E-05  1.80567E-02  1.73985E-06  9.99837E-01  4.44089E-16
  1.200E+00  1.09658E-04  1.96986E-02  2.05211E-06  9.99806E-01  0.00000E+00
  1.300E+00  1.28695E-04  2.13405E-02  2.39664E-06  9.99772E-01  1.11022E-16
  1.400E+00  1.49255E-04  2.29825E-02  2.77183E-06  9.99736E-01 -2.22045E-16
  1.500E+00  1.71338E-04  2.46245E-02  3.17750E-06  9.99697E-01  1.11022E-16
  1.600E+00  1.94942E-04  2.62665E-02  3.61372E-06  9.99655E-01  1.11022E-16
  1.700E+00  2.20070E-04  2.79086E-02  4.07963E-06  9.99610E-01  1.11022E-16
  1.800E+00  2.46720E-04  2.95507E-02  4.57539E-06  9.99563E-01 -2.22045E-16
  1.900E+00  2.74892E-04  3.11928E-02  5.10277E-06  9.99513E-01 -2.22045E-16
  2.000E+00  3.04586E-04  3.28349E-02  5.66052E-06  9.99461E-01  1.11022E-16
  2.100E+00  3.35803E-04  3.44770E-02  6.24970E-06  9.99405E-01 -4.44089E-16
  2.200E+00  3.68542E-04  3.61191E-02  6.87178E-06  9.99347E-01  0.00000E+00
  2.300E+00  4.02802E-04  3.77613E-02  7.52690E-06  9.99287E-01  1.11022E-16
  2.400E+00  4.38585E-04  3.94034E-02  8.21657E-06  9.99223E-01 -2.22045E-16
  2.500E+00  4.75889E-04  4.10455E-02  8.94045E-06  9.99157E-01 -4.44089E-16
  2.600E+00  5.14715E-04  4.26876E-02  9.70073E-06  9.99088E-01  0.00000E+00
  2.700E+00  5.55063E-04  4.43298E-02  1.04970E-05  9.99017E-01  2.22045E-16
  2.800E+00  5.96931E-04  4.59718E-02  1.13290E-05  9.98943E-01  0.00000E+00
  2.900E+00  6.40321E-04  4.76139E-02  1.22000E-05  9.98866E-01  3.33067E-16
  3.000E+00  6.85233E-04  4.92560E-02  1.31088E-05  9.98786E-01 -2.22045E-16
  3.100E+00  7.31665E-04  5.08980E-02  1.40537E-05  9.98704E-01  1.11022E-16
  3.200E+00  7.79618E-04  5.25400E-02  1.50398E-05  9.98619E-01  0.00000E+00
  3.300E+00  8.29092E-04  5.41819E-02  1.60653E-05  9.98531E-01 -2.22045E-16
  3.400E+00  8.80086E-04  5.58239E-02  1.71266E-05  9.98441E-01  2.22045E-16
  3.500E+00  9.32601E-04  5.74657E-02  1.82315E-05  9.98347E-01  1.11022E-16
  3.600E+00  9.86636E-04  5.91076E-02  1.93760E-05  9.98252E-01 -2.22045E-16
  3.700E+00  1.04219E-03  6.07493E-02  2.05541E-05  9.98153E-01 -2.22045E-16
  3.800E+00  1.09927E-03  6.23911E-02  2.17788E-05  9.98052E-01 -2.22045E-16
  3.900E+00  1.15786E-03  6.40327E-02  2.30435E-05  9.97948E-01  2.22045E-16
  4.000E+00  1.21797E-03  6.56743E-02  2.43404E-05  9.97841E-01 -2.22045E-16
  4.100E+00  1.27961E-03  6.73159E-02  2.56877E-05  9.97732E-01  4.44089E-16
  4.200E+00  1.34276E-03  6.89573E-02  2.70715E-05  9.97620E-01  1.11022E-16
  4.300E+00  1.40743E-03  7.05988E-02  2.84863E-05  9.97505E-01 -2.22045E-16
  4.400E+00  1.47362E-03  7.22401E-02  2.99519E-05  9.97387E-01  0.00000E+00
  4.500E+00  1.54133E-03  7.38813E-02  3.14543E-05  9.97267E-01 -2.22045E-16
  4.600E+00  1.61056E-03  7.55225E-02  3.29868E-05  9.97144E-01  2.22045E-16
  4.700E+00  1.68131E-03  7.71635E-02  3.45739E-05  9.97018E-01  0.00000E+00
  4.800E+00  1.75357E-03  7.88045E-02  3.61933E-05  9.96890E-01  3.33067E-16
  4.900E+00  1.82735E-03  8.04454E-02  3.78398E-05  9.96759E-01  0.00000E+00
  5.000E+00  1.90265E-03  8.20862E-02  3.95427E-05  9.96625E-01 -2.22045E-16
  5.100E+00  1.97947E-03  8.37269E-02  4.12767E-05  9.96489E-01  2.22045E-16
  5.200E+00  2.05780E-03  8.53675E-02  4.30376E-05  9.96350E-01 -2.22045E-16
  5.300E+00  2.13765E-03  8.70079E-02  4.48579E-05  9.96208E-01  0.00000E+00
  5.400E+00  2.21902E-03  8.86483E-02  4.67047E-05  9.96063E-01  0.00000E+00
  5.500E+00  2.30190E-03  9.02885E-02  4.85721E-05  9.95916E-01  2.22045E-16
  5.600E+00  2.38630E-03  9.19286E-02  5.05031E-05  9.95766E-01 -2.22045E-16
  5.700E+00  2.47222E-03  9.35686E-02  5.24609E-05  9.95613E-01 -2.22045E-16
  5.800E+00  2.55965E-03  9.52085E-02  5.44369E-05  9.95457E-01  3.33067E-16
  5.900E+00  2.64859E-03  9.68482E-02  5.64819E-05  9.95299E-01  3.33067E-16
  6.000E+00  2.73905E-03  9.84878E-02  5.85462E-05  9.95138E-01  0.00000E+00
  6.100E+00  2.83103E-03  1.00127E-01  6.06156E-05  9.94975E-01  0.00000E+00
  6.200E+00  2.92452E-03  1.01767E-01  6.27656E-05  9.94808E-01  0.00000E+00
  6.300E+00  3.01952E-03  1.03406E-01  6.49371E-05  9.94639E-01 -2.22045E-16
  6.400E+00  3.11604E-03  1.05045E-01  6.71020E-05  9.94468E-01  0.00000E+00
  6.500E+00  3.21407E-03  1.06684E-01  6.93696E-05  9.94293E-01  0.00000E+00
  6.600E+00  3.31362E-03  1.08322E-01  7.16424E-05  9.94116E-01  2.22045E-16
  6.700E+00  3.41468E-03  1.09961E-01  7.38674E-05  9.93936E-01 -2.22045E-16
  6.800E+00  3.51725E-03  1.11599E-01  7.62658E-05  9.93753E-01 -2.22045E-16
  6.900E+00  3.62133E-03  1.13237E-01  7.86146E-05  9.93568E-01 -4.44089E-16
  7.000E+00  3.72692E-03  1.14875E-01  8.09007E-05  9.93380E-01  1.11022E-16
  7.100E+00  3.83403E-03  1.16513E-01  8.35252E-05  9.93189E-01  0.00000E+00
  7.200E+00  3.94265E-03  1.18151E-01  8.57622E-05  9.92996E-01 -4.44089E-16
  7.300E+00  4.05278E-03  1.19788E-01  8.83474E-05  9.92799E-01 -2.22045E-16
  7.400E+00  4.16442E-03  1.21425E-01  9.08569E-05  9.92601E-01  0.00000E+00
  7.500E+00  4.27757E-03  1.23063E-01  9.32849E-05  9.92399E-01  0.00000E+00
  7.600E+00  4.39223E-03  1.24699E-01  9.59584E-05  9.92195E-01  0.00000E+00
  7.700E+00  4.50840E-03  1.26336E-01  9.84966E-05  9.91987E-01  0.00000E+00
  7.800E+00  4.62608E-03  1.27973E-01  1.01085E-04  9.91778E-01  0.00000E+00
  7.900E+00  4.74527E-03  1.29609E-01  1.03757E-04  9.91565E-01 -2.22045E-16
  8.000E+00  4.86597E-03  1.31245E-01  1.06381E-04  9.91350E-01  0.00000E+00
  8.100E+00  4.98817E-03  1.32881E-01  1.09052E-04  9.91132E-01  0.00000E+00
  8.200E+00  5.11188E-03  1.34516E-01  1.11790E-04  9.90911E-01  3.33067E-16
  8.300E+00  5.23711E-03  1.36152E-01  1.14507E-04  9.90688E-01 -2.22045E-16
  8.400E+00  5.36383E-03  1.37787E-01  1.17241E-04  9.90462E-01 -4.44089E-16
  8.500E+00  5.49207E-03  1.39422E-01  1.20015E-04  9.90233E-01 -2.22045E-16
  8.600E+00  5.62181E-03  1.41056E-01  1.22785E-04  9.90002E-01  1.11022E-16
  8.700E+00  5.75306E-03  1.42691E-01  1.25581E-04  9.89767E-01 -2.22045E-16
  8.800E+00  5.88581E-03  1.44325E-01  1.28426E-04  9.89530E-01  1.11022E-16
  8.900E+00  6.02007E-03  1.45959E-01  1.31268E-04  9.89291E-01  0.00000E+00
  9.000E+00  6.15583E-03  1.47592E-01  1.34114E-04  9.89048E-01  1.11022E-16
  9.100E+00  6.29310E-03  1.49226E-01  1.36986E-04  9.88803E-01  1.11022E-16
  9.200E+00  6.43187E-03  1.50859E-01  1.39865E-04  9.88555E-01 -2.22045E-16
  9.300E+00  6.57214E-03  1.52492E-01  1.42763E-04  9.88305E-01  2.22045E-16
  9.400E+00  6.71392E-03  1.54124E-01  1.45698E-04  9.88051E-01  0.00000E+00
  9.500E+00  6.85720E-03  1.55757E-01  1.48634E-04  9.87795E-01 -2.22045E-16
  9.600E+00  7.00198E-03  1.57389E-01  1.51564E-04  9.87537E-01 -2.22045E-16
  9.700E+00  7.14827E-03  1.59020E-01  1.54508E-04  9.87275E-01 -2.22045E-16
  9.800E+00  7.29605E-03  1.60652E-01  1.57463E-04  9.87011E-01  0.00000E+00
  9.900E+00  7.44534E-03  1.62283E-01  1.60434E-04  9.86744E-01  0.00000E+00
  1.000E+01  7.59612E-03  1.63914E-01  1.63431E-04  9.86475E-01  1.11022E-16
  1.025E+01  7.97965E-03  1.67990E-01  1.70911E-04  9.85789E-01  2.22045E-16
  1.050E+01  8.37255E-03  1.72063E-01  1.78436E-04  9.85086E-01  2.22045E-16
  1.075E+01  8.77480E-03  1.76135E-01  1.86011E-04  9.84366E-01  0.00000E+00
  1.100E+01  9.18641E-03  1.80205E-01  1.93548E-04  9.83629E-01  0.00000E+00
  1.125E+01  9.60736E-03  1.84272E-01  2.01138E-04  9.82875E-01  2.22045E-16
  1.150E+01  1.00376E-02  1.88338E-01  2.08663E-04  9.82104E-01  0.00000E+00
  1.175E+01  1.04773E-02  1.92400E-01  2.16206E-04  9.81316E-01 -4.44089E-16
  1.200E+01  1.09262E-02  1.96461E-01  2.23692E-04  9.80512E-01  2.22045E-16
  1.225E+01  1.13844E-02  2.00519E-01  2.31101E-04  9.79690E-01  2.22045E-16
  1.250E+01  1.18520E-02  2.04575E-01  2.38491E-04  9.78851E-01  2.22045E-16
  1.275E+01  1.23288E-02  2.08628E-01  2.45738E-04  9.77995E-01  0.00000E+00
  1.300E+01  1.28150E-02  2.12678E-01  2.52968E-04  9.77122E-01  0.00000E+00
  1.325E+01  1.33104E-02  2.16725E-01  2.60034E-04  9.76233E-01  0.00000E+00
  1.350E+01  1.38150E-02  2.20770E-01  2.67006E-04  9.75326E-01 -2.22045E-16
  1.375E+01  1.43290E-02  2.24812E-01  2.73868E-04  9.74402E-01 -4.44089E-16
  1.400E+01  1.48521E-02  2.28851E-01  2.80530E-04  9.73462E-01  0.00000E+00
  1.425E+01  1.53845E-02  2.32886E-01  2.87117E-04  9.72504E-01  3.33067E-16
  1.450E+01  1.59262E-02  2.36919E-01  2.93428E-04  9.71529E-01  0.00000E+00
  1.475E+01  1.64770E-02  2.40949E-01  2.99619E-04  9.70538E-01 -4.44089E-16
