 #
 # Projectile: electron
 # Kinetic energy = 3.10000E+06 eV = 1.13923E+05 a.u.
 #
 # Element: Au,  Z =  79,  atomic weight = 1.96967E+02 g/mol
 #
 # Nuclear model: Fermi distribution
 #
 # Number of electrons = 79
 #
 # Electron density: Read from file z_079.den   
 #                   Number of data points =  777
 #                   Volume integral = 7.90000E+01
 #
 # Furness-McCarthy exchange potential
 #
 # Total elastic cross section = 7.85173E-18 cm**2 = 2.80390E-01 a0**2
 # 1st transport cross section = 7.76026E-22 cm**2 = 2.77124E-05 a0**2
 # 2nd transport cross section = 2.06063E-21 cm**2 = 7.35864E-05 a0**2
 #
 #
 # Differential cross section:                    
 #
 #  THETA        MU          DCS          DCS     
 #  (deg)                 (cm**2/sr)   (a0**2/sr) 
 #------------------------------------------------
  0.000E+00  0.00000E+00  5.15081E-13  1.83939E+04
  1.000E-04  7.61557E-13  5.15080E-13  1.83938E+04
  1.250E-04  1.18994E-12  5.15079E-13  1.83938E+04
  1.500E-04  1.71346E-12  5.15078E-13  1.83938E+04
  1.750E-04  2.33225E-12  5.15078E-13  1.83938E+04
  2.000E-04  3.04617E-12  5.15077E-13  1.83937E+04
  2.250E-04  3.85530E-12  5.15076E-13  1.83937E+04
  2.500E-04  4.75964E-12  5.15074E-13  1.83936E+04
  2.750E-04  5.75917E-12  5.15073E-13  1.83936E+04
  3.000E-04  6.85391E-12  5.15072E-13  1.83935E+04
  3.250E-04  8.04379E-12  5.15070E-13  1.83935E+04
  3.500E-04  9.32893E-12  5.15068E-13  1.83934E+04
  3.750E-04  1.07092E-11  5.15066E-13  1.83934E+04
  4.000E-04  1.21847E-11  5.15064E-13  1.83933E+04
  4.250E-04  1.37554E-11  5.15062E-13  1.83932E+04
  4.500E-04  1.54213E-11  5.15060E-13  1.83931E+04
  4.750E-04  1.71823E-11  5.15058E-13  1.83930E+04
  5.000E-04  1.90386E-11  5.15055E-13  1.83930E+04
  5.250E-04  2.09900E-11  5.15053E-13  1.83929E+04
  5.500E-04  2.30367E-11  5.15050E-13  1.83928E+04
  5.750E-04  2.51785E-11  5.15047E-13  1.83927E+04
  6.000E-04  2.74156E-11  5.15044E-13  1.83926E+04
  6.250E-04  2.97478E-11  5.15041E-13  1.83925E+04
  6.500E-04  3.21752E-11  5.15038E-13  1.83923E+04
  6.750E-04  3.46979E-11  5.15034E-13  1.83922E+04
  7.000E-04  3.73157E-11  5.15031E-13  1.83921E+04
  7.250E-04  4.00286E-11  5.15027E-13  1.83920E+04
  7.500E-04  4.28368E-11  5.15024E-13  1.83918E+04
  7.750E-04  4.57402E-11  5.15020E-13  1.83917E+04
  8.000E-04  4.87388E-11  5.15016E-13  1.83915E+04
  8.250E-04  5.18325E-11  5.15012E-13  1.83914E+04
  8.500E-04  5.50215E-11  5.15007E-13  1.83912E+04
  8.750E-04  5.83057E-11  5.15003E-13  1.83911E+04
  9.000E-04  6.16850E-11  5.14998E-13  1.83909E+04
  9.250E-04  6.51595E-11  5.14994E-13  1.83908E+04
  9.500E-04  6.87293E-11  5.14989E-13  1.83906E+04
  9.750E-04  7.23943E-11  5.14984E-13  1.83904E+04
  1.000E-03  7.61544E-11  5.14979E-13  1.83902E+04
  1.250E-03  1.18991E-10  5.14922E-13  1.83882E+04
  1.500E-03  1.71347E-10  5.14852E-13  1.83857E+04
  1.750E-03  2.33223E-10  5.14770E-13  1.83828E+04
  2.000E-03  3.04617E-10  5.14675E-13  1.83794E+04
  2.250E-03  3.85531E-10  5.14567E-13  1.83755E+04
  2.500E-03  4.75965E-10  5.14446E-13  1.83712E+04
  2.750E-03  5.75917E-10  5.14313E-13  1.83665E+04
  3.000E-03  6.85389E-10  5.14168E-13  1.83613E+04
  3.250E-03  8.04380E-10  5.14010E-13  1.83556E+04
  3.500E-03  9.32891E-10  5.13839E-13  1.83495E+04
  3.750E-03  1.07092E-09  5.13656E-13  1.83430E+04
  4.000E-03  1.21847E-09  5.13460E-13  1.83360E+04
  4.250E-03  1.37554E-09  5.13252E-13  1.83285E+04
  4.500E-03  1.54213E-09  5.13031E-13  1.83207E+04
  4.750E-03  1.71823E-09  5.12798E-13  1.83123E+04
  5.000E-03  1.90386E-09  5.12552E-13  1.83036E+04
  5.250E-03  2.09900E-09  5.12294E-13  1.82944E+04
  5.500E-03  2.30367E-09  5.12024E-13  1.82847E+04
  5.750E-03  2.51785E-09  5.11742E-13  1.82746E+04
  6.000E-03  2.74156E-09  5.11447E-13  1.82641E+04
  6.250E-03  2.97478E-09  5.11140E-13  1.82531E+04
  6.500E-03  3.21752E-09  5.10821E-13  1.82418E+04
  6.750E-03  3.46978E-09  5.10490E-13  1.82299E+04
  7.000E-03  3.73156E-09  5.10147E-13  1.82177E+04
  7.250E-03  4.00286E-09  5.09791E-13  1.82050E+04
  7.500E-03  4.28368E-09  5.09424E-13  1.81919E+04
  7.750E-03  4.57402E-09  5.09045E-13  1.81783E+04
  8.000E-03  4.87388E-09  5.08654E-13  1.81644E+04
  8.250E-03  5.18326E-09  5.08251E-13  1.81500E+04
  8.500E-03  5.50215E-09  5.07836E-13  1.81352E+04
  8.750E-03  5.83057E-09  5.07410E-13  1.81199E+04
  9.000E-03  6.16850E-09  5.06972E-13  1.81043E+04
  9.250E-03  6.51596E-09  5.06522E-13  1.80882E+04
  9.500E-03  6.87293E-09  5.06061E-13  1.80718E+04
  9.750E-03  7.23942E-09  5.05588E-13  1.80549E+04
  1.000E-02  7.61544E-09  5.05104E-13  1.80376E+04
  1.250E-02  1.18991E-08  4.99650E-13  1.78428E+04
  1.500E-02  1.71347E-08  4.93132E-13  1.76101E+04
  1.750E-02  2.33223E-08  4.85632E-13  1.73422E+04
  2.000E-02  3.04617E-08  4.77239E-13  1.70425E+04
  2.250E-02  3.85531E-08  4.68050E-13  1.67144E+04
  2.500E-02  4.75965E-08  4.58164E-13  1.63613E+04
  2.750E-02  5.75917E-08  4.47683E-13  1.59871E+04
  3.000E-02  6.85389E-08  4.36707E-13  1.55951E+04
  3.250E-02  8.04380E-08  4.25333E-13  1.51889E+04
  3.500E-02  9.32891E-08  4.13655E-13  1.47719E+04
  3.750E-02  1.07092E-07  4.01760E-13  1.43471E+04
  4.000E-02  1.21847E-07  3.89730E-13  1.39175E+04
  4.250E-02  1.37554E-07  3.77638E-13  1.34857E+04
  4.500E-02  1.54213E-07  3.65552E-13  1.30541E+04
  4.750E-02  1.71823E-07  3.53530E-13  1.26248E+04
  5.000E-02  1.90386E-07  3.41625E-13  1.21996E+04
  5.250E-02  2.09900E-07  3.29880E-13  1.17802E+04
  5.500E-02  2.30367E-07  3.18335E-13  1.13679E+04
  5.750E-02  2.51785E-07  3.07019E-13  1.09639E+04
  6.000E-02  2.74156E-07  2.95960E-13  1.05689E+04
  6.250E-02  2.97478E-07  2.85177E-13  1.01839E+04
  6.500E-02  3.21752E-07  2.74687E-13  9.80925E+03
  6.750E-02  3.46978E-07  2.64500E-13  9.44547E+03
  7.000E-02  3.73156E-07  2.54625E-13  9.09284E+03
  7.250E-02  4.00286E-07  2.45067E-13  8.75150E+03
  7.500E-02  4.28368E-07  2.35827E-13  8.42154E+03
  7.750E-02  4.57402E-07  2.26906E-13  8.10294E+03
  8.000E-02  4.87388E-07  2.18300E-13  7.79563E+03
  8.250E-02  5.18325E-07  2.10007E-13  7.49948E+03
  8.500E-02  5.50215E-07  2.02021E-13  7.21429E+03
  8.750E-02  5.83057E-07  1.94336E-13  6.93986E+03
  9.000E-02  6.16850E-07  1.86945E-13  6.67592E+03
  9.250E-02  6.51596E-07  1.79840E-13  6.42221E+03
  9.500E-02  6.87293E-07  1.73014E-13  6.17845E+03
  9.750E-02  7.23942E-07  1.66458E-13  5.94432E+03
  1.000E-01  7.61543E-07  1.60163E-13  5.71952E+03
  1.250E-01  1.18991E-06  1.09673E-13  3.91648E+03
  1.500E-01  1.71347E-06  7.63882E-14  2.72787E+03
  1.750E-01  2.33223E-06  5.42951E-14  1.93891E+03
  2.000E-01  3.04617E-06  3.94251E-14  1.40790E+03
  2.250E-01  3.85531E-06  2.92446E-14  1.04434E+03
  2.500E-01  4.75964E-06  2.21425E-14  7.90725E+02
  2.750E-01  5.75916E-06  1.70894E-14  6.10273E+02
  3.000E-01  6.85388E-06  1.34212E-14  4.79280E+02
  3.250E-01  8.04378E-06  1.07051E-14  3.82285E+02
  3.500E-01  9.32888E-06  8.65531E-15  3.09087E+02
  3.750E-01  1.07092E-05  7.08074E-15  2.52858E+02
  4.000E-01  1.21846E-05  5.85154E-15  2.08962E+02
  4.250E-01  1.37553E-05  4.87812E-15  1.74201E+02
  4.500E-01  1.54212E-05  4.09757E-15  1.46327E+02
  4.750E-01  1.71822E-05  3.46493E-15  1.23735E+02
  5.000E-01  1.90385E-05  2.94745E-15  1.05255E+02
  5.250E-01  2.09899E-05  2.52084E-15  9.00210E+01
  5.500E-01  2.30365E-05  2.16679E-15  7.73773E+01
  5.750E-01  2.51783E-05  1.87122E-15  6.68224E+01
  6.000E-01  2.74153E-05  1.62320E-15  5.79654E+01
  6.250E-01  2.97475E-05  1.41410E-15  5.04983E+01
  6.500E-01  3.21749E-05  1.23704E-15  4.41755E+01
  6.750E-01  3.46974E-05  1.08650E-15  3.87995E+01
  7.000E-01  3.73152E-05  9.57988E-16  3.42104E+01
  7.250E-01  4.00281E-05  8.47864E-16  3.02778E+01
  7.500E-01  4.28362E-05  7.53132E-16  2.68948E+01
  7.750E-01  4.57395E-05  6.71334E-16  2.39738E+01
  8.000E-01  4.87380E-05  6.00439E-16  2.14421E+01
  8.250E-01  5.18317E-05  5.38767E-16  1.92397E+01
  8.500E-01  5.50205E-05  4.84923E-16  1.73169E+01
  8.750E-01  5.83045E-05  4.37744E-16  1.56321E+01
  9.000E-01  6.16838E-05  3.96262E-16  1.41508E+01
  9.250E-01  6.51582E-05  3.59665E-16  1.28439E+01
  9.500E-01  6.87277E-05  3.27270E-16  1.16870E+01
  9.750E-01  7.23925E-05  2.98505E-16  1.06598E+01
  1.000E+00  7.61524E-05  2.72884E-16  9.74487E+00
  1.100E+00  9.21439E-05  1.94500E-16  6.94571E+00
  1.200E+00  1.09658E-04  1.42560E-16  5.09091E+00
  1.300E+00  1.28695E-04  1.06936E-16  3.81875E+00
  1.400E+00  1.49255E-04  8.18019E-17  2.92120E+00
  1.500E+00  1.71338E-04  6.36455E-17  2.27282E+00
  1.600E+00  1.94942E-04  5.02623E-17  1.79490E+00
  1.700E+00  2.20070E-04  4.02222E-17  1.43636E+00
  1.800E+00  2.46720E-04  3.25712E-17  1.16314E+00
  1.900E+00  2.74892E-04  2.66581E-17  9.51979E-01
  2.000E+00  3.04586E-04  2.20295E-17  7.86689E-01
  2.100E+00  3.35803E-04  1.83643E-17  6.55800E-01
  2.200E+00  3.68542E-04  1.54310E-17  5.51052E-01
  2.300E+00  4.02802E-04  1.30610E-17  4.66416E-01
  2.400E+00  4.38585E-04  1.11290E-17  3.97425E-01
  2.500E+00  4.75889E-04  9.54145E-18  3.40731E-01
  2.600E+00  5.14715E-04  8.22716E-18  2.93797E-01
  2.700E+00  5.55063E-04  7.13162E-18  2.54675E-01
  2.800E+00  5.96931E-04  6.21260E-18  2.21856E-01
  2.900E+00  6.40321E-04  5.43709E-18  1.94162E-01
  3.000E+00  6.85233E-04  4.77904E-18  1.70663E-01
  3.100E+00  7.31665E-04  4.21777E-18  1.50619E-01
  3.200E+00  7.79618E-04  3.73670E-18  1.33440E-01
  3.300E+00  8.29092E-04  3.32247E-18  1.18648E-01
  3.400E+00  8.80086E-04  2.96425E-18  1.05855E-01
  3.500E+00  9.32601E-04  2.65319E-18  9.47470E-02
  3.600E+00  9.86636E-04  2.38202E-18  8.50634E-02
  3.700E+00  1.04219E-03  2.14475E-18  7.65904E-02
  3.800E+00  1.09927E-03  1.93642E-18  6.91507E-02
  3.900E+00  1.15786E-03  1.75288E-18  6.25963E-02
  4.000E+00  1.21797E-03  1.59066E-18  5.68035E-02
  4.100E+00  1.27961E-03  1.44686E-18  5.16683E-02
  4.200E+00  1.34276E-03  1.31901E-18  4.71028E-02
  4.300E+00  1.40743E-03  1.20503E-18  4.30325E-02
  4.400E+00  1.47362E-03  1.10315E-18  3.93943E-02
  4.500E+00  1.54133E-03  1.01186E-18  3.61340E-02
  4.600E+00  1.61056E-03  9.29845E-19  3.32054E-02
  4.700E+00  1.68131E-03  8.56007E-19  3.05686E-02
  4.800E+00  1.75357E-03  7.89381E-19  2.81893E-02
  4.900E+00  1.82735E-03  7.29134E-19  2.60379E-02
  5.000E+00  1.90265E-03  6.74546E-19  2.40885E-02
  5.100E+00  1.97947E-03  6.24988E-19  2.23187E-02
  5.200E+00  2.05780E-03  5.79914E-19  2.07091E-02
  5.300E+00  2.13765E-03  5.38843E-19  1.92424E-02
  5.400E+00  2.21902E-03  5.01356E-19  1.79038E-02
  5.500E+00  2.30190E-03  4.67083E-19  1.66798E-02
  5.600E+00  2.38630E-03  4.35698E-19  1.55591E-02
  5.700E+00  2.47222E-03  4.06914E-19  1.45312E-02
  5.800E+00  2.55965E-03  3.80476E-19  1.35870E-02
  5.900E+00  2.64859E-03  3.56157E-19  1.27186E-02
  6.000E+00  2.73905E-03  3.33757E-19  1.19187E-02
  6.100E+00  2.83103E-03  3.13096E-19  1.11809E-02
  6.200E+00  2.92452E-03  2.94016E-19  1.04995E-02
  6.300E+00  3.01952E-03  2.76372E-19  9.86943E-03
  6.400E+00  3.11604E-03  2.60037E-19  9.28611E-03
  6.500E+00  3.21407E-03  2.44897E-19  8.74542E-03
  6.600E+00  3.31362E-03  2.30846E-19  8.24367E-03
  6.700E+00  3.41468E-03  2.17794E-19  7.77755E-03
  6.800E+00  3.51725E-03  2.05655E-19  7.34406E-03
  6.900E+00  3.62133E-03  1.94354E-19  6.94050E-03
  7.000E+00  3.72692E-03  1.83822E-19  6.56441E-03
  7.100E+00  3.83403E-03  1.73998E-19  6.21359E-03
  7.200E+00  3.94265E-03  1.64825E-19  5.88601E-03
  7.300E+00  4.05278E-03  1.56252E-19  5.57986E-03
  7.400E+00  4.16442E-03  1.48232E-19  5.29347E-03
  7.500E+00  4.27757E-03  1.40724E-19  5.02533E-03
  7.600E+00  4.39223E-03  1.33687E-19  4.77406E-03
  7.700E+00  4.50840E-03  1.27088E-19  4.53840E-03
  7.800E+00  4.62608E-03  1.20894E-19  4.31720E-03
  7.900E+00  4.74527E-03  1.15075E-19  4.10940E-03
  8.000E+00  4.86597E-03  1.09605E-19  3.91405E-03
  8.100E+00  4.98817E-03  1.04458E-19  3.73025E-03
  8.200E+00  5.11188E-03  9.96118E-20  3.55720E-03
  8.300E+00  5.23711E-03  9.50459E-20  3.39415E-03
  8.400E+00  5.36383E-03  9.07407E-20  3.24041E-03
  8.500E+00  5.49207E-03  8.66786E-20  3.09535E-03
  8.600E+00  5.62181E-03  8.28432E-20  2.95838E-03
  8.700E+00  5.75306E-03  7.92195E-20  2.82898E-03
  8.800E+00  5.88581E-03  7.57936E-20  2.70664E-03
  8.900E+00  6.02007E-03  7.25526E-20  2.59090E-03
  9.000E+00  6.15583E-03  6.94847E-20  2.48134E-03
  9.100E+00  6.29310E-03  6.65788E-20  2.37757E-03
  9.200E+00  6.43187E-03  6.38248E-20  2.27922E-03
  9.300E+00  6.57214E-03  6.12132E-20  2.18596E-03
  9.400E+00  6.71392E-03  5.87352E-20  2.09747E-03
  9.500E+00  6.85720E-03  5.63828E-20  2.01347E-03
  9.600E+00  7.00198E-03  5.41482E-20  1.93367E-03
  9.700E+00  7.14827E-03  5.20245E-20  1.85783E-03
  9.800E+00  7.29605E-03  5.00051E-20  1.78571E-03
  9.900E+00  7.44534E-03  4.80839E-20  1.71711E-03
  1.000E+01  7.59612E-03  4.62552E-20  1.65180E-03
  1.025E+01  7.97965E-03  4.20541E-20  1.50178E-03
  1.050E+01  8.37255E-03  3.83250E-20  1.36861E-03
  1.075E+01  8.77480E-03  3.50053E-20  1.25006E-03
  1.100E+01  9.18641E-03  3.20421E-20  1.14425E-03
  1.125E+01  9.60736E-03  2.93902E-20  1.04954E-03
  1.150E+01  1.00376E-02  2.70110E-20  9.64580E-04
  1.175E+01  1.04773E-02  2.48713E-20  8.88169E-04
  1.200E+01  1.09262E-02  2.29425E-20  8.19293E-04
  1.225E+01  1.13844E-02  2.12002E-20  7.57072E-04
  1.250E+01  1.18520E-02  1.96229E-20  7.00746E-04
  1.275E+01  1.23288E-02  1.81921E-20  6.49652E-04
  1.300E+01  1.28150E-02  1.68917E-20  6.03214E-04
  1.325E+01  1.33104E-02  1.57076E-20  5.60928E-04
  1.350E+01  1.38150E-02  1.46274E-20  5.22353E-04
  1.375E+01  1.43290E-02  1.36403E-20  4.87103E-04
  1.400E+01  1.48521E-02  1.27367E-20  4.54837E-04
  1.425E+01  1.53845E-02  1.19084E-20  4.25255E-04
  1.450E+01  1.59262E-02  1.11477E-20  3.98090E-04
  1.475E+01  1.64770E-02  1.04481E-20  3.73108E-04
  1.500E+01  1.70371E-02  9.80380E-21  3.50100E-04
  1.525E+01  1.76063E-02  9.20956E-21  3.28879E-04
  1.550E+01  1.81848E-02  8.66075E-21  3.09281E-04
  1.575E+01  1.87724E-02  8.15322E-21  2.91157E-04
  1.600E+01  1.93692E-02  7.68326E-21  2.74374E-04
  1.625E+01  1.99751E-02  7.24756E-21  2.58815E-04
  1.650E+01  2.05901E-02  6.84312E-21  2.44372E-04
  1.675E+01  2.12143E-02  6.46727E-21  2.30950E-04
  1.700E+01  2.18476E-02  6.11759E-21  2.18463E-04
  1.725E+01  2.24900E-02  5.79190E-21  2.06832E-04
  1.750E+01  2.31415E-02  5.48822E-21  1.95988E-04
  1.775E+01  2.38021E-02  5.20478E-21  1.85866E-04
  1.800E+01  2.44717E-02  4.93995E-21  1.76409E-04
  1.825E+01  2.51504E-02  4.69228E-21  1.67564E-04
  1.850E+01  2.58382E-02  4.46042E-21  1.59285E-04
  1.875E+01  2.65349E-02  4.24317E-21  1.51527E-04
  1.900E+01  2.72407E-02  4.03943E-21  1.44251E-04
  1.925E+01  2.79555E-02  3.84817E-21  1.37421E-04
  1.950E+01  2.86793E-02  3.66849E-21  1.31004E-04
  1.975E+01  2.94120E-02  3.49954E-21  1.24971E-04
  2.000E+01  3.01537E-02  3.34055E-21  1.19293E-04
  2.025E+01  3.09043E-02  3.19082E-21  1.13946E-04
  2.050E+01  3.16639E-02  3.04968E-21  1.08906E-04
  2.075E+01  3.24324E-02  2.91656E-21  1.04152E-04
  2.100E+01  3.32098E-02  2.79089E-21  9.96646E-05
  2.125E+01  3.39961E-02  2.67219E-21  9.54255E-05
  2.150E+01  3.47912E-02  2.55997E-21  9.14183E-05
  2.175E+01  3.55952E-02  2.45382E-21  8.76275E-05
  2.200E+01  3.64081E-02  2.35334E-21  8.40391E-05
  2.225E+01  3.72297E-02  2.25815E-21  8.06401E-05
  2.250E+01  3.80602E-02  2.16794E-21  7.74184E-05
  2.275E+01  3.88995E-02  2.08237E-21  7.43628E-05
  2.300E+01  3.97476E-02  2.00116E-21  7.14628E-05
  2.325E+01  4.06044E-02  1.92405E-21  6.87091E-05
  2.350E+01  4.14700E-02  1.85078E-21  6.60925E-05
  2.375E+01  4.23443E-02  1.78112E-21  6.36049E-05
  2.400E+01  4.32273E-02  1.71485E-21  6.12385E-05
  2.425E+01  4.41190E-02  1.65178E-21  5.89861E-05
  2.450E+01  4.50194E-02  1.59172E-21  5.68412E-05
  2.475E+01  4.59284E-02  1.53448E-21  5.47974E-05
  2.500E+01  4.68461E-02  1.47992E-21  5.28491E-05
  2.550E+01  4.87074E-02  1.37822E-21  4.92172E-05
  2.600E+01  5.06030E-02  1.28551E-21  4.59065E-05
  2.650E+01  5.25328E-02  1.20084E-21  4.28827E-05
  2.700E+01  5.44967E-02  1.12336E-21  4.01159E-05
  2.750E+01  5.64946E-02  1.05234E-21  3.75797E-05
  2.800E+01  5.85262E-02  9.87126E-22  3.52509E-05
  2.850E+01  6.05914E-02  9.27145E-22  3.31089E-05
  2.900E+01  6.26901E-02  8.71889E-22  3.11357E-05
  2.950E+01  6.48222E-02  8.20906E-22  2.93151E-05
  3.000E+01  6.69873E-02  7.73796E-22  2.76327E-05
  3.050E+01  6.91854E-02  7.30201E-22  2.60760E-05
  3.100E+01  7.14163E-02  6.89803E-22  2.46333E-05
  3.150E+01  7.36799E-02  6.52317E-22  2.32947E-05
  3.200E+01  7.59760E-02  6.17487E-22  2.20509E-05
  3.250E+01  7.83043E-02  5.85084E-22  2.08937E-05
  3.300E+01  8.06647E-02  5.54901E-22  1.98159E-05
  3.350E+01  8.30571E-02  5.26752E-22  1.88107E-05
  3.400E+01  8.54812E-02  5.00471E-22  1.78722E-05
  3.450E+01  8.79369E-02  4.75906E-22  1.69949E-05
  3.500E+01  9.04240E-02  4.52919E-22  1.61740E-05
  3.550E+01  9.29422E-02  4.31387E-22  1.54051E-05
  3.600E+01  9.54915E-02  4.11196E-22  1.46841E-05
  3.650E+01  9.80716E-02  3.92244E-22  1.40073E-05
  3.700E+01  1.00682E-01  3.74437E-22  1.33714E-05
  3.750E+01  1.03323E-01  3.57691E-22  1.27734E-05
  3.800E+01  1.05995E-01  3.41928E-22  1.22105E-05
  3.850E+01  1.08696E-01  3.27077E-22  1.16801E-05
  3.900E+01  1.11427E-01  3.13073E-22  1.11800E-05
  3.950E+01  1.14188E-01  2.99856E-22  1.07080E-05
  4.000E+01  1.16978E-01  2.87371E-22  1.02622E-05
  4.050E+01  1.19797E-01  2.75570E-22  9.84077E-06
  4.100E+01  1.22645E-01  2.64405E-22  9.44206E-06
  4.150E+01  1.25522E-01  2.53833E-22  9.06455E-06
  4.200E+01  1.28428E-01  2.43817E-22  8.70687E-06
  4.250E+01  1.31361E-01  2.34320E-22  8.36772E-06
  4.300E+01  1.34323E-01  2.25308E-22  8.04590E-06
  4.350E+01  1.37313E-01  2.16751E-22  7.74033E-06
  4.400E+01  1.40330E-01  2.08621E-22  7.44999E-06
  4.450E+01  1.43375E-01  2.00891E-22  7.17393E-06
  4.500E+01  1.46447E-01  1.93536E-22  6.91128E-06
  4.550E+01  1.49545E-01  1.86534E-22  6.66124E-06
  4.600E+01  1.52671E-01  1.79864E-22  6.42305E-06
  4.650E+01  1.55823E-01  1.73506E-22  6.19601E-06
  4.700E+01  1.59001E-01  1.67442E-22  5.97947E-06
  4.750E+01  1.62205E-01  1.61656E-22  5.77283E-06
  4.800E+01  1.65435E-01  1.56131E-22  5.57553E-06
  4.850E+01  1.68690E-01  1.50852E-22  5.38703E-06
  4.900E+01  1.71970E-01  1.45807E-22  5.20685E-06
  4.950E+01  1.75276E-01  1.40981E-22  5.03454E-06
  5.000E+01  1.78606E-01  1.36364E-22  4.86966E-06
  5.050E+01  1.81961E-01  1.31944E-22  4.71181E-06
  5.100E+01  1.85340E-01  1.27710E-22  4.56062E-06
  5.150E+01  1.88743E-01  1.23653E-22  4.41573E-06
  5.200E+01  1.92169E-01  1.19763E-22  4.27683E-06
  5.250E+01  1.95619E-01  1.16032E-22  4.14359E-06
  5.300E+01  1.99092E-01  1.12452E-22  4.01574E-06
  5.350E+01  2.02589E-01  1.09015E-22  3.89299E-06
  5.400E+01  2.06107E-01  1.05714E-22  3.77510E-06
  5.450E+01  2.09649E-01  1.02541E-22  3.66182E-06
  5.500E+01  2.13212E-01  9.94921E-23  3.55293E-06
  5.550E+01  2.16797E-01  9.65596E-23  3.44821E-06
  5.600E+01  2.20404E-01  9.37385E-23  3.34746E-06
  5.650E+01  2.24032E-01  9.10233E-23  3.25050E-06
  5.700E+01  2.27680E-01  8.84091E-23  3.15715E-06
  5.750E+01  2.31350E-01  8.58913E-23  3.06723E-06
  5.800E+01  2.35040E-01  8.34652E-23  2.98060E-06
  5.850E+01  2.38751E-01  8.11268E-23  2.89709E-06
  5.900E+01  2.42481E-01  7.88720E-23  2.81657E-06
  5.950E+01  2.46231E-01  7.66972E-23  2.73891E-06
  6.000E+01  2.50000E-01  7.45987E-23  2.66397E-06
  6.050E+01  2.53788E-01  7.25731E-23  2.59163E-06
  6.100E+01  2.57595E-01  7.06175E-23  2.52180E-06
  6.150E+01  2.61421E-01  6.87286E-23  2.45434E-06
  6.200E+01  2.65264E-01  6.69035E-23  2.38917E-06
  6.250E+01  2.69126E-01  6.51397E-23  2.32618E-06
  6.300E+01  2.73005E-01  6.34345E-23  2.26529E-06
  6.350E+01  2.76901E-01  6.17854E-23  2.20640E-06
  6.400E+01  2.80814E-01  6.01903E-23  2.14943E-06
  6.450E+01  2.84744E-01  5.86468E-23  2.09431E-06
