 #  Spin polarization functions (in cm)      MU=(1-cos(TH))/2
 #  Z =  79,   projectile: electron
 #  Kinetic energy = 6.10000E+06 eV
 #
 # TH (deg)      MU            U            S            T      1-U^2-T^2-S^2
 #------------------------------------------------------------------------------
  0.000E+00  0.00000E+00  0.00000E+00  0.00000E+00  1.00000E+00  0.00000E+00
  1.000E-04  7.61557E-13  1.61043E-06  9.47873E-12  1.00000E+00 -2.22045E-16
  1.250E-04  1.18994E-12  2.01304E-06  1.18485E-11  1.00000E+00  2.22045E-16
  1.500E-04  1.71346E-12  2.41565E-06  1.42183E-11  1.00000E+00 -2.22045E-16
  1.750E-04  2.33225E-12  2.81826E-06  1.65882E-11  1.00000E+00  2.22045E-16
  2.000E-04  3.04617E-12  3.22087E-06  1.89581E-11  1.00000E+00  0.00000E+00
  2.250E-04  3.85530E-12  3.62348E-06  2.13282E-11  1.00000E+00  1.11022E-16
  2.500E-04  4.75964E-12  4.02608E-06  2.36983E-11  1.00000E+00  1.11022E-16
  2.750E-04  5.75917E-12  4.42869E-06  2.60686E-11  1.00000E+00  1.11022E-16
  3.000E-04  6.85391E-12  4.83130E-06  2.84389E-11  1.00000E+00 -2.22045E-16
  3.250E-04  8.04379E-12  5.23391E-06  3.08094E-11  1.00000E+00 -2.22045E-16
  3.500E-04  9.32893E-12  5.63652E-06  3.31800E-11  1.00000E+00  0.00000E+00
  3.750E-04  1.07092E-11  6.03913E-06  3.55508E-11  1.00000E+00  0.00000E+00
  4.000E-04  1.21847E-11  6.44173E-06  3.79217E-11  1.00000E+00  2.22045E-16
  4.250E-04  1.37554E-11  6.84434E-06  4.02928E-11  1.00000E+00  2.22045E-16
  4.500E-04  1.54213E-11  7.24695E-06  4.26641E-11  1.00000E+00  0.00000E+00
  4.750E-04  1.71823E-11  7.64956E-06  4.50356E-11  1.00000E+00 -2.22045E-16
  5.000E-04  1.90386E-11  8.05217E-06  4.74073E-11  1.00000E+00 -2.22045E-16
  5.250E-04  2.09900E-11  8.45478E-06  4.97792E-11  1.00000E+00  2.22045E-16
  5.500E-04  2.30367E-11  8.85738E-06  5.21513E-11  1.00000E+00 -2.22045E-16
  5.750E-04  2.51785E-11  9.25999E-06  5.45236E-11  1.00000E+00  0.00000E+00
  6.000E-04  2.74156E-11  9.66260E-06  5.68962E-11  1.00000E+00  1.11022E-16
  6.250E-04  2.97478E-11  1.00652E-05  5.92690E-11  1.00000E+00 -2.22045E-16
  6.500E-04  3.21752E-11  1.04678E-05  6.16421E-11  1.00000E+00  0.00000E+00
  6.750E-04  3.46979E-11  1.08704E-05  6.40155E-11  1.00000E+00  2.22045E-16
  7.000E-04  3.73157E-11  1.12730E-05  6.63892E-11  1.00000E+00  1.11022E-16
  7.250E-04  4.00286E-11  1.16756E-05  6.87632E-11  1.00000E+00  1.11022E-16
  7.500E-04  4.28368E-11  1.20783E-05  7.11374E-11  1.00000E+00  0.00000E+00
  7.750E-04  4.57402E-11  1.24809E-05  7.35120E-11  1.00000E+00  0.00000E+00
  8.000E-04  4.87388E-11  1.28835E-05  7.58869E-11  1.00000E+00  1.11022E-16
  8.250E-04  5.18325E-11  1.32861E-05  7.82622E-11  1.00000E+00  1.11022E-16
  8.500E-04  5.50215E-11  1.36887E-05  8.06378E-11  1.00000E+00  0.00000E+00
  8.750E-04  5.83057E-11  1.40913E-05  8.30137E-11  1.00000E+00  0.00000E+00
  9.000E-04  6.16850E-11  1.44939E-05  8.53901E-11  1.00000E+00  1.11022E-16
  9.250E-04  6.51595E-11  1.48965E-05  8.77668E-11  1.00000E+00 -2.22045E-16
  9.500E-04  6.87293E-11  1.52991E-05  9.01439E-11  1.00000E+00  0.00000E+00
  9.750E-04  7.23943E-11  1.57017E-05  9.25214E-11  1.00000E+00  1.11022E-16
  1.000E-03  7.61544E-11  1.61043E-05  9.48993E-11  1.00000E+00 -2.22045E-16
  1.250E-03  1.18991E-10  2.01304E-05  1.18703E-10  1.00000E+00 -2.22045E-16
  1.500E-03  1.71347E-10  2.41565E-05  1.42559E-10  1.00000E+00  0.00000E+00
  1.750E-03  2.33223E-10  2.81826E-05  1.66477E-10  1.00000E+00  1.11022E-16
  2.000E-03  3.04617E-10  3.22087E-05  1.90467E-10  1.00000E+00  1.11022E-16
  2.250E-03  3.85531E-10  3.62347E-05  2.14537E-10  1.00000E+00 -2.22045E-16
  2.500E-03  4.75965E-10  4.02608E-05  2.38697E-10  1.00000E+00  0.00000E+00
  2.750E-03  5.75917E-10  4.42869E-05  2.62955E-10  1.00000E+00  0.00000E+00
  3.000E-03  6.85389E-10  4.83130E-05  2.87320E-10  1.00000E+00 -2.22045E-16
  3.250E-03  8.04380E-10  5.23391E-05  3.11797E-10  1.00000E+00  0.00000E+00
  3.500E-03  9.32891E-10  5.63652E-05  3.36396E-10  1.00000E+00 -2.22045E-16
  3.750E-03  1.07092E-09  6.03912E-05  3.61121E-10  1.00000E+00  0.00000E+00
  4.000E-03  1.21847E-09  6.44173E-05  3.85979E-10  1.00000E+00 -2.22045E-16
  4.250E-03  1.37554E-09  6.84434E-05  4.10976E-10  1.00000E+00  1.11022E-16
  4.500E-03  1.54213E-09  7.24695E-05  4.36115E-10  1.00000E+00  0.00000E+00
  4.750E-03  1.71823E-09  7.64955E-05  4.61400E-10  1.00000E+00  2.22045E-16
  5.000E-03  1.90386E-09  8.05216E-05  4.86835E-10  1.00000E+00  1.11022E-16
  5.250E-03  2.09900E-09  8.45477E-05  5.12423E-10  1.00000E+00  1.11022E-16
  5.500E-03  2.30367E-09  8.85738E-05  5.38166E-10  1.00000E+00  0.00000E+00
  5.750E-03  2.51785E-09  9.25998E-05  5.64065E-10  1.00000E+00  2.22045E-16
  6.000E-03  2.74156E-09  9.66259E-05  5.90121E-10  1.00000E+00  0.00000E+00
  6.250E-03  2.97478E-09  1.00652E-04  6.16334E-10  1.00000E+00  0.00000E+00
  6.500E-03  3.21752E-09  1.04678E-04  6.42703E-10  1.00000E+00  1.11022E-16
  6.750E-03  3.46978E-09  1.08704E-04  6.69228E-10  1.00000E+00  0.00000E+00
  7.000E-03  3.73156E-09  1.12730E-04  6.95907E-10  1.00000E+00  0.00000E+00
  7.250E-03  4.00286E-09  1.16756E-04  7.22738E-10  1.00000E+00  1.11022E-16
  7.500E-03  4.28368E-09  1.20782E-04  7.49718E-10  1.00000E+00  1.11022E-16
  7.750E-03  4.57402E-09  1.24808E-04  7.76843E-10  1.00000E+00 -2.22045E-16
  8.000E-03  4.87388E-09  1.28835E-04  8.04111E-10  1.00000E+00  2.22045E-16
  8.250E-03  5.18326E-09  1.32861E-04  8.31518E-10  1.00000E+00  0.00000E+00
  8.500E-03  5.50215E-09  1.36887E-04  8.59058E-10  1.00000E+00 -2.22045E-16
  8.750E-03  5.83057E-09  1.40913E-04  8.86728E-10  1.00000E+00  0.00000E+00
  9.000E-03  6.16850E-09  1.44939E-04  9.14521E-10  1.00000E+00 -2.22045E-16
  9.250E-03  6.51596E-09  1.48965E-04  9.42434E-10  1.00000E+00  0.00000E+00
  9.500E-03  6.87293E-09  1.52991E-04  9.70461E-10  1.00000E+00  2.22045E-16
  9.750E-03  7.23942E-09  1.57017E-04  9.98596E-10  1.00000E+00  0.00000E+00
  1.000E-02  7.61544E-09  1.61043E-04  1.02683E-09  1.00000E+00  0.00000E+00
  1.250E-02  1.18991E-08  2.01304E-04  1.31370E-09  1.00000E+00  0.00000E+00
  1.500E-02  1.71347E-08  2.41565E-04  1.60618E-09  1.00000E+00  0.00000E+00
  1.750E-02  2.33223E-08  2.81825E-04  1.90465E-09  1.00000E+00  1.11022E-16
  2.000E-02  3.04617E-08  3.22086E-04  2.21535E-09  1.00000E+00  2.22045E-16
  2.250E-02  3.85531E-08  3.62347E-04  2.54765E-09  1.00000E+00  0.00000E+00
  2.500E-02  4.75965E-08  4.02608E-04  2.90902E-09  1.00000E+00  0.00000E+00
  2.750E-02  5.75917E-08  4.42869E-04  3.30067E-09  1.00000E+00 -2.22045E-16
  3.000E-02  6.85389E-08  4.83130E-04  3.71731E-09  1.00000E+00  1.11022E-16
  3.250E-02  8.04380E-08  5.23391E-04  4.15128E-09  1.00000E+00  1.11022E-16
  3.500E-02  9.32891E-08  5.63652E-04  4.59881E-09  1.00000E+00  3.33067E-16
  3.750E-02  1.07092E-07  6.03913E-04  5.06380E-09  1.00000E+00  0.00000E+00
  4.000E-02  1.21847E-07  6.44174E-04  5.55621E-09  1.00000E+00 -2.22045E-16
  4.250E-02  1.37554E-07  6.84435E-04  6.08565E-09  1.00000E+00 -2.22045E-16
  4.500E-02  1.54213E-07  7.24696E-04  6.65453E-09  1.00000E+00  0.00000E+00
  4.750E-02  1.71823E-07  7.64957E-04  7.25599E-09  1.00000E+00 -2.22045E-16
  5.000E-02  1.90386E-07  8.05218E-04  7.87857E-09  1.00000E+00  0.00000E+00
  5.250E-02  2.09900E-07  8.45479E-04  8.51497E-09  1.00000E+00  1.11022E-16
  5.500E-02  2.30367E-07  8.85740E-04  9.16853E-09  1.00000E+00  0.00000E+00
  5.750E-02  2.51785E-07  9.26001E-04  9.85224E-09  1.00000E+00  3.33067E-16
  6.000E-02  2.74156E-07  9.66263E-04  1.05802E-08  1.00000E+00 -4.44089E-16
  6.250E-02  2.97478E-07  1.00652E-03  1.13571E-08  9.99999E-01 -2.22045E-16
  6.500E-02  3.21752E-07  1.04679E-03  1.21741E-08  9.99999E-01  0.00000E+00
  6.750E-02  3.46978E-07  1.08705E-03  1.30142E-08  9.99999E-01  1.11022E-16
  7.000E-02  3.73156E-07  1.12731E-03  1.38649E-08  9.99999E-01 -4.44089E-16
  7.250E-02  4.00286E-07  1.16757E-03  1.47280E-08  9.99999E-01  0.00000E+00
  7.500E-02  4.28368E-07  1.20783E-03  1.56198E-08  9.99999E-01 -2.22045E-16
  7.750E-02  4.57402E-07  1.24809E-03  1.65605E-08  9.99999E-01 -2.22045E-16
  8.000E-02  4.87388E-07  1.28835E-03  1.75587E-08  9.99999E-01 -2.22045E-16
  8.250E-02  5.18325E-07  1.32862E-03  1.86041E-08  9.99999E-01  3.33067E-16
  8.500E-02  5.50215E-07  1.36888E-03  1.96738E-08  9.99999E-01  0.00000E+00
  8.750E-02  5.83057E-07  1.40914E-03  2.07489E-08  9.99999E-01 -2.22045E-16
  9.000E-02  6.16850E-07  1.44940E-03  2.18295E-08  9.99999E-01  0.00000E+00
  9.250E-02  6.51596E-07  1.48966E-03  2.29363E-08  9.99999E-01 -2.22045E-16
  9.500E-02  6.87293E-07  1.52992E-03  2.40963E-08  9.99999E-01  0.00000E+00
  9.750E-02  7.23942E-07  1.57019E-03  2.53228E-08  9.99999E-01 -2.22045E-16
  1.000E-01  7.61543E-07  1.61045E-03  2.66034E-08  9.99999E-01  0.00000E+00
  1.250E-01  1.18991E-06  2.01307E-03  4.06968E-08  9.99998E-01  1.11022E-16
  1.500E-01  1.71347E-06  2.41570E-03  5.76196E-08  9.99997E-01  0.00000E+00
  1.750E-01  2.33223E-06  2.81833E-03  7.76188E-08  9.99996E-01 -4.44089E-16
  2.000E-01  3.04617E-06  3.22097E-03  9.98114E-08  9.99995E-01 -2.22045E-16
  2.250E-01  3.85531E-06  3.62361E-03  1.25281E-07  9.99993E-01  0.00000E+00
  2.500E-01  4.75964E-06  4.02626E-03  1.53191E-07  9.99992E-01  0.00000E+00
  2.750E-01  5.75916E-06  4.42891E-03  1.83525E-07  9.99990E-01 -2.22045E-16
  3.000E-01  6.85388E-06  4.83157E-03  2.17096E-07  9.99988E-01 -4.44089E-16
  3.250E-01  8.04378E-06  5.23424E-03  2.51689E-07  9.99986E-01  2.22045E-16
  3.500E-01  9.32888E-06  5.63692E-03  2.89488E-07  9.99984E-01 -2.22045E-16
  3.750E-01  1.07092E-05  6.03960E-03  3.28577E-07  9.99982E-01  1.11022E-16
  4.000E-01  1.21846E-05  6.44229E-03  3.68881E-07  9.99979E-01  1.11022E-16
  4.250E-01  1.37553E-05  6.84499E-03  4.11716E-07  9.99977E-01 -2.22045E-16
  4.500E-01  1.54212E-05  7.24769E-03  4.55192E-07  9.99974E-01  0.00000E+00
  4.750E-01  1.71822E-05  7.65040E-03  5.01827E-07  9.99971E-01  3.33067E-16
  5.000E-01  1.90385E-05  8.05311E-03  5.49245E-07  9.99968E-01  0.00000E+00
  5.250E-01  2.09899E-05  8.45583E-03  5.99511E-07  9.99964E-01  1.11022E-16
  5.500E-01  2.30365E-05  8.85856E-03  6.52749E-07  9.99961E-01  0.00000E+00
  5.750E-01  2.51783E-05  9.26129E-03  7.07175E-07  9.99957E-01  3.33067E-16
  6.000E-01  2.74153E-05  9.66403E-03  7.66064E-07  9.99953E-01  0.00000E+00
  6.250E-01  2.97475E-05  1.00668E-02  8.26116E-07  9.99949E-01 -2.22045E-16
  6.500E-01  3.21749E-05  1.04695E-02  8.89551E-07  9.99945E-01  0.00000E+00
  6.750E-01  3.46974E-05  1.08723E-02  9.55669E-07  9.99941E-01  0.00000E+00
  7.000E-01  3.73152E-05  1.12750E-02  1.02296E-06  9.99936E-01 -2.22045E-16
  7.250E-01  4.00281E-05  1.16778E-02  1.09376E-06  9.99932E-01  1.11022E-16
  7.500E-01  4.28362E-05  1.20806E-02  1.16577E-06  9.99927E-01 -2.22045E-16
  7.750E-01  4.57395E-05  1.24833E-02  1.24057E-06  9.99922E-01  0.00000E+00
  8.000E-01  4.87380E-05  1.28861E-02  1.31649E-06  9.99917E-01 -4.44089E-16
  8.250E-01  5.18317E-05  1.32889E-02  1.39442E-06  9.99912E-01 -2.22045E-16
  8.500E-01  5.50205E-05  1.36917E-02  1.47412E-06  9.99906E-01  0.00000E+00
  8.750E-01  5.83045E-05  1.40945E-02  1.55517E-06  9.99901E-01 -2.22045E-16
  9.000E-01  6.16838E-05  1.44973E-02  1.63874E-06  9.99895E-01  1.11022E-16
  9.250E-01  6.51582E-05  1.49001E-02  1.72311E-06  9.99889E-01 -2.22045E-16
  9.500E-01  6.87277E-05  1.53029E-02  1.80973E-06  9.99883E-01  3.33067E-16
  9.750E-01  7.23925E-05  1.57058E-02  1.89759E-06  9.99877E-01  0.00000E+00
  1.000E+00  7.61524E-05  1.61086E-02  1.98734E-06  9.99870E-01  0.00000E+00
  1.100E+00  9.21439E-05  1.77199E-02  2.36269E-06  9.99843E-01 -2.22045E-16
  1.200E+00  1.09658E-04  1.93314E-02  2.76891E-06  9.99813E-01  1.11022E-16
  1.300E+00  1.28695E-04  2.09429E-02  3.21132E-06  9.99781E-01  1.11022E-16
  1.400E+00  1.49255E-04  2.25544E-02  3.69262E-06  9.99746E-01 -4.44089E-16
  1.500E+00  1.71338E-04  2.41661E-02  4.21601E-06  9.99708E-01  1.11022E-16
  1.600E+00  1.94942E-04  2.57778E-02  4.78386E-06  9.99668E-01  0.00000E+00
  1.700E+00  2.20070E-04  2.73895E-02  5.39471E-06  9.99625E-01  1.11022E-16
  1.800E+00  2.46720E-04  2.90013E-02  6.04924E-06  9.99579E-01 -2.22045E-16
  1.900E+00  2.74892E-04  3.06132E-02  6.74892E-06  9.99531E-01  0.00000E+00
  2.000E+00  3.04586E-04  3.22251E-02  7.49016E-06  9.99481E-01  2.22045E-16
  2.100E+00  3.35803E-04  3.38370E-02  8.27423E-06  9.99427E-01  0.00000E+00
  2.200E+00  3.68542E-04  3.54490E-02  9.10344E-06  9.99371E-01 -2.22045E-16
  2.300E+00  4.02802E-04  3.70610E-02  9.97437E-06  9.99313E-01 -2.22045E-16
  2.400E+00  4.38585E-04  3.86731E-02  1.08888E-05  9.99252E-01 -4.44089E-16
  2.500E+00  4.75889E-04  4.02852E-02  1.18494E-05  9.99188E-01 -2.22045E-16
  2.600E+00  5.14715E-04  4.18973E-02  1.28539E-05  9.99122E-01 -2.22045E-16
  2.700E+00  5.55063E-04  4.35094E-02  1.39041E-05  9.99053E-01 -4.44089E-16
  2.800E+00  5.96931E-04  4.51216E-02  1.50009E-05  9.98982E-01  2.22045E-16
  2.900E+00  6.40321E-04  4.67337E-02  1.61449E-05  9.98907E-01  2.22045E-16
  3.000E+00  6.85233E-04  4.83459E-02  1.73370E-05  9.98831E-01 -2.22045E-16
  3.100E+00  7.31665E-04  4.99581E-02  1.85767E-05  9.98751E-01  3.33067E-16
  3.200E+00  7.79618E-04  5.15703E-02  1.98673E-05  9.98669E-01 -4.44089E-16
  3.300E+00  8.29092E-04  5.31825E-02  2.12083E-05  9.98585E-01 -4.44089E-16
  3.400E+00  8.80086E-04  5.47947E-02  2.25976E-05  9.98498E-01 -4.44089E-16
  3.500E+00  9.32601E-04  5.64068E-02  2.40415E-05  9.98408E-01  0.00000E+00
  3.600E+00  9.86636E-04  5.80190E-02  2.55369E-05  9.98315E-01  1.11022E-16
  3.700E+00  1.04219E-03  5.96312E-02  2.70807E-05  9.98220E-01 -2.22045E-16
  3.800E+00  1.09927E-03  6.12434E-02  2.86831E-05  9.98123E-01  1.11022E-16
  3.900E+00  1.15786E-03  6.28555E-02  3.03363E-05  9.98023E-01  0.00000E+00
  4.000E+00  1.21797E-03  6.44676E-02  3.20367E-05  9.97920E-01  3.33067E-16
  4.100E+00  1.27961E-03  6.60797E-02  3.38000E-05  9.97814E-01 -4.44089E-16
  4.200E+00  1.34276E-03  6.76918E-02  3.56118E-05  9.97706E-01 -2.22045E-16
  4.300E+00  1.40743E-03  6.93039E-02  3.74709E-05  9.97596E-01  3.33067E-16
  4.400E+00  1.47362E-03  7.09159E-02  3.93972E-05  9.97482E-01 -2.22045E-16
  4.500E+00  1.54133E-03  7.25279E-02  4.13684E-05  9.97366E-01  2.22045E-16
  4.600E+00  1.61056E-03  7.41398E-02  4.33857E-05  9.97248E-01  0.00000E+00
  4.700E+00  1.68131E-03  7.57517E-02  4.54742E-05  9.97127E-01  3.33067E-16
  4.800E+00  1.75357E-03  7.73635E-02  4.76036E-05  9.97003E-01  1.11022E-16
  4.900E+00  1.82735E-03  7.89753E-02  4.97787E-05  9.96877E-01 -4.44089E-16
  5.000E+00  1.90265E-03  8.05871E-02  5.20287E-05  9.96748E-01 -2.22045E-16
  5.100E+00  1.97947E-03  8.21988E-02  5.43144E-05  9.96616E-01 -2.22045E-16
  5.200E+00  2.05780E-03  8.38104E-02  5.66439E-05  9.96482E-01  3.33067E-16
  5.300E+00  2.13765E-03  8.54220E-02  5.90527E-05  9.96345E-01  3.33067E-16
  5.400E+00  2.21902E-03  8.70335E-02  6.14924E-05  9.96205E-01 -2.22045E-16
  5.500E+00  2.30190E-03  8.86449E-02  6.39734E-05  9.96063E-01 -2.22045E-16
  5.600E+00  2.38630E-03  9.02563E-02  6.65390E-05  9.95919E-01 -4.44089E-16
  5.700E+00  2.47222E-03  9.18675E-02  6.91286E-05  9.95771E-01  0.00000E+00
  5.800E+00  2.55965E-03  9.34788E-02  7.17564E-05  9.95621E-01 -4.44089E-16
  5.900E+00  2.64859E-03  9.50899E-02  7.44763E-05  9.95469E-01  1.11022E-16
  6.000E+00  2.73905E-03  9.67009E-02  7.72119E-05  9.95313E-01  2.22045E-16
  6.100E+00  2.83103E-03  9.83119E-02  7.99811E-05  9.95156E-01  0.00000E+00
  6.200E+00  2.92452E-03  9.99227E-02  8.28534E-05  9.94995E-01  1.11022E-16
  6.300E+00  3.01952E-03  1.01533E-01  8.57278E-05  9.94832E-01  2.22045E-16
  6.400E+00  3.11604E-03  1.03144E-01  8.86307E-05  9.94666E-01  0.00000E+00
  6.500E+00  3.21407E-03  1.04755E-01  9.16564E-05  9.94498E-01  2.22045E-16
  6.600E+00  3.31362E-03  1.06365E-01  9.46585E-05  9.94327E-01  1.11022E-16
  6.700E+00  3.41468E-03  1.07975E-01  9.76905E-05  9.94154E-01 -2.22045E-16
  6.800E+00  3.51725E-03  1.09586E-01  1.00880E-04  9.93977E-01 -4.44089E-16
  6.900E+00  3.62133E-03  1.11196E-01  1.03979E-04  9.93799E-01  3.33067E-16
  7.000E+00  3.72692E-03  1.12806E-01  1.07162E-04  9.93617E-01 -4.44089E-16
  7.100E+00  3.83403E-03  1.14416E-01  1.10489E-04  9.93433E-01  2.22045E-16
  7.200E+00  3.94265E-03  1.16025E-01  1.13665E-04  9.93246E-01  0.00000E+00
  7.300E+00  4.05278E-03  1.17635E-01  1.17034E-04  9.93057E-01  0.00000E+00
  7.400E+00  4.16442E-03  1.19244E-01  1.20436E-04  9.92865E-01 -2.22045E-16
  7.500E+00  4.27757E-03  1.20854E-01  1.23742E-04  9.92670E-01  1.11022E-16
  7.600E+00  4.39223E-03  1.22463E-01  1.27255E-04  9.92473E-01  2.22045E-16
  7.700E+00  4.50840E-03  1.24072E-01  1.30716E-04  9.92273E-01  3.33067E-16
  7.800E+00  4.62608E-03  1.25681E-01  1.34182E-04  9.92071E-01 -2.22045E-16
  7.900E+00  4.74527E-03  1.27290E-01  1.37780E-04  9.91866E-01  3.33067E-16
  8.000E+00  4.86597E-03  1.28898E-01  1.41348E-04  9.91658E-01  2.22045E-16
  8.100E+00  4.98817E-03  1.30507E-01  1.44936E-04  9.91447E-01  1.11022E-16
  8.200E+00  5.11188E-03  1.32115E-01  1.48617E-04  9.91234E-01  3.33067E-16
  8.300E+00  5.23711E-03  1.33723E-01  1.52284E-04  9.91019E-01  0.00000E+00
  8.400E+00  5.36383E-03  1.35331E-01  1.55973E-04  9.90800E-01  0.00000E+00
  8.500E+00  5.49207E-03  1.36939E-01  1.59736E-04  9.90579E-01  2.22045E-16
  8.600E+00  5.62181E-03  1.38546E-01  1.63497E-04  9.90356E-01  0.00000E+00
  8.700E+00  5.75306E-03  1.40154E-01  1.67276E-04  9.90130E-01  2.22045E-16
  8.800E+00  5.88581E-03  1.41761E-01  1.71115E-04  9.89901E-01  3.33067E-16
  8.900E+00  6.02007E-03  1.43368E-01  1.74959E-04  9.89669E-01 -2.22045E-16
  9.000E+00  6.15583E-03  1.44975E-01  1.78818E-04  9.89435E-01 -2.22045E-16
  9.100E+00  6.29310E-03  1.46581E-01  1.82731E-04  9.89199E-01 -2.22045E-16
  9.200E+00  6.43187E-03  1.48188E-01  1.86651E-04  9.88959E-01  2.22045E-16
  9.300E+00  6.57214E-03  1.49794E-01  1.90582E-04  9.88717E-01  0.00000E+00
  9.400E+00  6.71392E-03  1.51400E-01  1.94555E-04  9.88473E-01  2.22045E-16
  9.500E+00  6.85720E-03  1.53006E-01  1.98537E-04  9.88225E-01  1.11022E-16
  9.600E+00  7.00198E-03  1.54612E-01  2.02528E-04  9.87975E-01  3.33067E-16
  9.700E+00  7.14827E-03  1.56217E-01  2.06556E-04  9.87723E-01 -2.22045E-16
  9.800E+00  7.29605E-03  1.57822E-01  2.10594E-04  9.87468E-01 -4.44089E-16
  9.900E+00  7.44534E-03  1.59427E-01  2.14637E-04  9.87210E-01 -2.22045E-16
  1.000E+01  7.59612E-03  1.61032E-01  2.18707E-04  9.86949E-01  3.33067E-16
  1.025E+01  7.97965E-03  1.65042E-01  2.28930E-04  9.86286E-01  0.00000E+00
  1.050E+01  8.37255E-03  1.69051E-01  2.39230E-04  9.85607E-01  0.00000E+00
  1.075E+01  8.77480E-03  1.73059E-01  2.49578E-04  9.84911E-01  2.22045E-16
  1.100E+01  9.18641E-03  1.77065E-01  2.59962E-04  9.84199E-01  0.00000E+00
  1.125E+01  9.60736E-03  1.81069E-01  2.70349E-04  9.83470E-01 -2.22045E-16
  1.150E+01  1.00376E-02  1.85071E-01  2.80747E-04  9.82725E-01  4.44089E-16
  1.175E+01  1.04773E-02  1.89072E-01  2.91127E-04  9.81963E-01  1.11022E-16
  1.200E+01  1.09262E-02  1.93070E-01  3.01467E-04  9.81185E-01  0.00000E+00
  1.225E+01  1.13844E-02  1.97067E-01  3.11755E-04  9.80390E-01  3.33067E-16
  1.250E+01  1.18520E-02  2.01061E-01  3.21955E-04  9.79579E-01  1.11022E-16
  1.275E+01  1.23288E-02  2.05054E-01  3.32083E-04  9.78751E-01  3.33067E-16
  1.300E+01  1.28150E-02  2.09044E-01  3.42093E-04  9.77906E-01  2.22045E-16
  1.325E+01  1.33104E-02  2.13032E-01  3.51984E-04  9.77045E-01 -2.22045E-16
  1.350E+01  1.38150E-02  2.17017E-01  3.61732E-04  9.76168E-01  3.33067E-16
  1.375E+01  1.43290E-02  2.21000E-01  3.71314E-04  9.75274E-01  2.22045E-16
  1.400E+01  1.48521E-02  2.24981E-01  3.80739E-04  9.74363E-01  0.00000E+00
  1.425E+01  1.53845E-02  2.28959E-01  3.89939E-04  9.73436E-01 -4.44089E-16
  1.450E+01  1.59262E-02  2.32934E-01  3.98920E-04  9.72492E-01 -2.22045E-16
  1.475E+01  1.64770E-02  2.36907E-01  4.07656E-04  9.71532E-01  2.22045E-16
